Data format:  Wavelength (nm) <tab> Transmission (%)
1050.0	0.00529
1050.2	0.00535
1050.4	0.00541
1050.6	0.00547
1050.8	0.00507
1051.0	0.00516
1051.2	0.00573
1051.4	0.00565
1051.6	0.00547
1051.8	0.00527
1052.0	0.00549
1052.2	0.00529
1052.4	0.00529
1052.6	0.00533
1052.8	0.00686
1053.0	0.00568
1053.2	0.00533
1053.4	0.00677
1053.6	0.00581
1053.8	0.00575
1054.0	0.00731
1054.2	0.00623
1054.4	0.00632
1054.6	0.00637
1054.8	0.00682
1055.0	0.00767
1055.2	0.00606
1055.4	0.00873
1055.6	0.00606
1055.8	0.00374
1056.0	0.00161
1056.2	6.964e-04
1056.4	7.243e-04
1056.6	7.5898e-04
1056.8	8.3585e-04
1057.0	7.9671e-04
1057.2	6.8263e-04
1057.4	6.1189e-04
1057.6	5.4071e-04
1057.8	4.0692e-04
1058.0	2.9294e-04
1058.2	2.5472e-04
1058.4	3.2272e-04
1058.6	3.0593e-04
1058.8	2.0032e-04
1059.0	1.5284e-04
1059.2	1.3826e-04
1059.4	1.4818e-04
1059.6	1.6062e-04
1059.8	1.4542e-04
1060.0	1.2197e-04
1060.2	1.7936e-04
1060.4	1.4853e-04
1060.6	1.3078e-04
1060.8	1.15e-04
1061.0	1.0176e-04
1061.2	1.1299e-04
1061.4	1.2547e-04
1061.6	1.2521e-04
1061.8	1.2436e-04
1062.0	1.2436e-04
1062.2	1.0442e-04
1062.4	1.0161e-04
1062.6	1.9307e-04
1062.8	2.5836e-05
1063.0	1.0846e-05
1063.2	3.4615e-05
1063.4	5.2464e-05
1063.6	5.6537e-05
1063.8	1.5578e-05
1064.0	2.1459e-05
1064.2	3.9474e-05
1064.4	4.4565e-05
1064.6	3.7752e-05
1064.8	2.9234e-05
1065.0	3.6544e-05
1065.2	5.2872e-05
1065.4	2.3062e-05
1065.6	1.1307e-05
1065.8	1.2372e-04
1066.0	5.1736e-05
1066.2	1.4047e-04
1066.4	4.0504e-04
1066.6	9.772e-04
1066.8	0.00208
1067.0	0.0064
1067.2	0.02207
1067.4	0.07235
1067.6	0.18689
1067.8	0.69019
1068.0	3.21803
1068.2	12.73121
1068.4	22.11139
1068.6	33.80549
1068.8	45.83528
1069.0	57.6764
1069.2	69.0966
1069.4	78.7332
1069.6	85.2048
1069.8	88.3973
1070.0	92.48058
1070.2	93.8861
1070.4	94.86355
1070.6	95.83899
1070.8	96.58137
1071.0	96.98999
1071.2	97.1705
1071.4	97.13008
1071.6	97.20767
1071.8	97.3866
1072.0	97.64797
1072.2	97.92748
1072.4	98.21556
1072.6	98.34604
1072.8	98.40123
1073.0	98.31089
1073.2	98.16855
1073.4	98.01406
1073.6	97.98881
1073.8	98.18405
1074.0	98.32373
1074.2	98.46746
1074.4	98.62342
1074.6	98.62792
1074.8	98.6419
1075.0	98.63107
1075.2	98.51906
1075.4	98.48466
1075.6	98.49394
1075.8	98.59812
1076.0	98.63947
1076.2	98.74608
1076.4	98.91893
1076.6	99.05845
1076.8	99.16447
1077.0	99.21566
1077.2	99.21703
1077.4	99.18115
1077.6	99.15357
1077.8	99.10475
1078.0	98.96779
1078.2	98.89242
1078.4	98.94353
1078.6	98.96058
1078.8	99.04579
1079.0	99.18327
1079.2	99.24246
1079.4	98.98484
1079.6	99.11395
1079.8	98.87796
1080.0	98.89658
1080.2	98.91565
1080.4	98.90905
1080.6	98.80025
1080.8	98.7842
1081.0	98.70747
1081.2	98.6408
1081.4	98.64775
1081.6	98.67779
1081.8	98.69981
1082.0	98.79149
1082.2	98.91617
1082.4	99.03724
1082.6	99.09864
1082.8	99.04454
1083.0	99.15389
1083.2	99.1727
1083.4	99.17648
1083.6	99.14308
1083.8	99.09233
1084.0	98.9921
1084.2	98.92992
1084.4	98.88059
1084.6	98.80823
1084.8	98.77623
1085.0	98.87231
1085.2	98.96657
1085.4	99.05571
1085.6	99.15582
1085.8	99.20646
1086.0	99.26793
1086.2	99.35839
1086.4	99.45161
1086.6	99.60948
1086.8	99.55444
1087.0	99.62848
1087.2	99.69112
1087.4	99.7096
1087.6	99.63523
1087.8	99.64237
1088.0	99.58819
1088.2	99.4881
1088.4	99.49431
1088.6	99.48499
1088.8	99.55601
1089.0	99.46171
1089.2	99.24841
1089.4	99.15689
1089.6	99.22851
1089.8	99.31043
1090.0	99.36836
1090.2	99.44526
1090.4	99.41983
1090.6	99.57539
1090.8	99.60741
1091.0	99.56876
1091.2	99.58965
1091.4	99.58703
1091.6	99.38511
1091.8	99.21797
1092.0	99.20226
1092.2	99.11571
1092.4	99.03721
1092.6	98.97628
1092.8	98.91466
1093.0	98.939
1093.2	99.03256
1093.4	99.00778
1093.6	99.12006
1093.8	99.14374
1094.0	99.29649
1094.2	99.25042
1094.4	99.388
1094.6	99.43865
1094.8	99.49177
1095.0	99.59914
1095.2	99.55939
1095.4	99.60554
1095.6	99.49611
1095.8	99.45034
1096.0	99.51983
1096.2	99.38947
1096.4	99.32734
1096.6	99.32336
1096.8	99.21435
1097.0	99.25339
1097.2	99.19888
1097.4	99.11895
1097.6	99.20611
1097.8	99.2296
1098.0	99.21344
1098.2	99.24514
1098.4	99.30416
1098.6	99.38841
1098.8	99.40464
1099.0	99.41455
1099.2	99.47157
1099.4	99.5143
1099.6	99.54306
1099.8	99.554
1100.0	99.50736
1100.2	99.55327
1100.4	99.40545
1100.6	99.38254
1100.8	99.26789
1101.0	99.29851
1101.2	99.14522
1101.4	99.1462
1101.6	99.16964
1101.8	99.15903
1102.0	99.10862
1102.2	99.14115
1102.4	99.1177
1102.6	99.09898
1102.8	99.11497
1103.0	99.19621
1103.2	99.24339
1103.4	99.33315
1103.6	99.3552
1103.8	99.3442
1104.0	99.45141
1104.2	99.53024
1104.4	99.58093
1104.6	99.52584
1104.8	99.55087
1105.0	99.56323
1105.2	99.59773
1105.4	99.56473
1105.6	99.49379
1105.8	99.45033
1106.0	99.33158
1106.2	99.34103
1106.4	99.20569
1106.6	99.11487
1106.8	98.95996
1107.0	99.05247
1107.2	99.03805
1107.4	99.06103
1107.6	99.1029
1107.8	99.12516
1108.0	99.0942
1108.2	99.21404
1108.4	99.2239
1108.6	99.33768
1108.8	99.35297
1109.0	99.41949
1109.2	99.43032
1109.4	99.59901
1109.6	99.63123
1109.8	99.65865
1110.0	99.67607
1110.2	99.62659
1110.4	99.6329
1110.6	99.58576
1110.8	99.4872
1111.0	99.46972
1111.2	99.44199
1111.4	99.36288
1111.6	99.28153
1111.8	99.22083
1112.0	99.16318
1112.2	99.18734
1112.4	99.22843
1112.6	99.31012
1112.8	99.08232
1113.0	99.20262
1113.2	99.25921
1113.4	99.2498
1113.6	99.22151
1113.8	99.39444
1114.0	99.24007
1114.2	99.30354
1114.4	99.54637
1114.6	99.55419
1114.8	99.57669
1115.0	99.56761
1115.2	99.58466
1115.4	99.3957
1115.6	99.41856
1115.8	99.44832
1116.0	99.46395
1116.2	99.37001
1116.4	99.30707
1116.6	99.46929
1116.8	99.4219
1117.0	99.31514
1117.2	99.24846
1117.4	99.15853
1117.6	99.06798
1117.8	99.17897
1118.0	99.0633
1118.2	99.11772
1118.4	99.11029
1118.6	99.09834
1118.8	99.23047
1119.0	99.19381
1119.2	99.21765
1119.4	99.2736
1119.6	99.22251
1119.8	99.36009
1120.0	99.40492
1120.2	99.37699
1120.4	99.45012
1120.6	99.53385
1120.8	99.40201
1121.0	99.34199
1121.2	99.47877
1121.4	99.43895
1121.6	99.41251
1121.8	99.42645
1122.0	99.35561
1122.2	99.24479
1122.4	99.13881
1122.6	99.04578
1122.8	98.96714
1123.0	98.98103
1123.2	98.88296
1123.4	98.8136
1123.6	98.71824
1123.8	98.71112
1124.0	98.76099
1124.2	98.70694
1124.4	98.52561
1124.6	98.74175
1124.8	98.70365
1125.0	98.69903
1125.2	98.843
1125.4	98.78185
1125.6	98.96227
1125.8	98.9509
1126.0	99.19919
1126.2	99.09351
1126.4	99.10562
1126.6	99.07961
1126.8	99.01402
1127.0	99.0059
1127.2	98.99778
1127.4	98.98966
1127.6	98.98154
1127.8	98.97343
1128.0	98.96531
1128.2	98.95719
1128.4	98.94907
1128.6	98.94095
1128.8	98.93284
1129.0	98.92472
1129.2	98.9166
1129.4	98.90848
1129.6	98.90036
1129.8	98.89224
1130.0	98.88413
1130.2	98.87601
1130.4	98.86789
1130.6	98.85977
1130.8	98.85165
1131.0	98.84354
1131.2	98.83542
1131.4	98.8273
1131.6	98.81918
1131.8	98.81265
1132.0	98.80697
1132.2	98.8013
1132.4	98.79562
1132.6	98.78995
1132.8	98.78427
1133.0	98.7786
1133.2	98.77292
1133.4	98.76725
1133.6	98.76157
1133.8	98.7559
1134.0	98.75022
1134.2	98.74454
1134.4	98.73887
1134.6	98.73319
1134.8	98.72752
1135.0	98.72184
1135.2	98.71617
1135.4	98.71049
1135.6	98.70482
1135.8	98.69914
1136.0	98.69346
1136.2	98.68779
1136.4	98.68211
1136.6	98.67644
1136.8	98.67844
1137.0	98.68528
1137.2	98.69213
1137.4	98.69898
1137.6	98.70582
1137.8	98.71267
1138.0	98.71952
1138.2	98.72636
1138.4	98.73321
1138.6	98.74006
1138.8	98.7469
1139.0	98.75375
1139.2	98.7606
1139.4	98.76744
1139.6	98.77429
1139.8	98.78114
1140.0	98.78798
1140.2	98.79483
1140.4	98.80168
1140.6	98.80852
1140.8	98.81537
1141.0	98.82222
1141.2	98.82906
1141.4	98.83591
1141.6	98.84276
1141.8	98.85025
1142.0	98.85822
1142.2	98.8662
1142.4	98.87417
1142.6	98.88214
1142.8	98.89012
1143.0	98.89809
1143.2	98.90606
1143.4	98.91404
1143.6	98.92201
1143.8	98.92998
1144.0	98.93795
1144.2	98.94593
1144.4	98.9539
1144.6	98.96187
1144.8	98.96985
1145.0	98.97782
1145.2	98.98579
1145.4	98.99377
1145.6	99.00174
1145.8	99.00971
1146.0	99.01769
1146.2	99.02566
1146.4	99.03363
1146.6	99.0416
1146.8	99.0385
1147.0	99.02591
1147.2	99.01333
1147.4	99.00074
1147.6	98.98815
1147.8	98.97557
1148.0	98.96298
1148.2	98.95039
1148.4	98.93781
1148.6	98.92522
1148.8	98.91263
1149.0	98.90005
1149.2	98.88746
1149.4	98.87487
1149.6	98.86229
1149.8	98.8497
1150.0	98.83711
1150.2	98.82453
1150.4	98.81194
1150.6	98.79935
1150.8	98.78677
1151.0	98.77418
1151.2	98.76159
1151.4	98.74901
1151.6	98.73642
1151.8	98.7299
1152.0	98.72941
1152.2	98.72892
1152.4	98.72843
1152.6	98.72794
1152.8	98.72745
1153.0	98.72696
1153.2	98.72646
1153.4	98.72597
1153.6	98.72548
1153.8	98.72499
1154.0	98.7245
1154.2	98.72401
1154.4	98.72352
1154.6	98.72302
1154.8	98.72253
1155.0	98.72204
1155.2	98.72155
1155.4	98.72106
1155.6	98.72057
1155.8	98.72008
1156.0	98.71959
1156.2	98.71909
1156.4	98.7186
1156.6	98.71811
1156.8	98.7196
1157.0	98.72337
1157.2	98.72713
1157.4	98.7309
1157.6	98.73467
1157.8	98.73843
1158.0	98.7422
1158.2	98.74596
1158.4	98.74973
1158.6	98.7535
1158.8	98.75726
1159.0	98.76103
1159.2	98.7648
1159.4	98.76856
1159.6	98.77233
1159.8	98.77609
1160.0	98.77986
1160.2	98.78363
1160.4	98.78739
1160.6	98.79116
1160.8	98.79493
1161.0	98.79869
1161.2	98.80246
1161.4	98.80623
1161.6	98.80999
1161.8	98.81093
1162.0	98.8081
1162.2	98.80527
1162.4	98.80245
1162.6	98.79962
1162.8	98.79679
1163.0	98.79396
1163.2	98.79113
1163.4	98.7883
1163.6	98.78547
1163.8	98.78264
1164.0	98.77981
1164.2	98.77698
1164.4	98.77415
1164.6	98.77132
1164.8	98.76849
1165.0	98.76566
1165.2	98.76283
1165.4	98.76
1165.6	98.75717
1165.8	98.75434
1166.0	98.75151
1166.2	98.74868
1166.4	98.74585
1166.6	98.74302
1166.8	98.74094
1167.0	98.74003
1167.2	98.73911
1167.4	98.7382
1167.6	98.73729
1167.8	98.73637
1168.0	98.73546
1168.2	98.73455
1168.4	98.73364
1168.6	98.73272
1168.8	98.73181
1169.0	98.7309
1169.2	98.72999
1169.4	98.72907
1169.6	98.72816
1169.8	98.72725
1170.0	98.72634
1170.2	98.72542
1170.4	98.72451
1170.6	98.7236
1170.8	98.72268
1171.0	98.72177
1171.2	98.72086
1171.4	98.71995
1171.6	98.71903
1171.8	98.7191
1172.0	98.72095
1172.2	98.7228
1172.4	98.72465
1172.6	98.7265
1172.8	98.72835
1173.0	98.7302
1173.2	98.73205
1173.4	98.7339
1173.6	98.73575
1173.8	98.7376
1174.0	98.73945
1174.2	98.7413
1174.4	98.74315
1174.6	98.745
1174.8	98.74685
1175.0	98.7487
1175.2	98.75055
1175.4	98.7524
1175.6	98.75425
1175.8	98.7561
1176.0	98.75795
1176.2	98.7598
1176.4	98.76165
1176.6	98.7635
1176.8	98.76173
1177.0	98.75217
1177.2	98.74262
1177.4	98.73306
1177.6	98.7235
1177.8	98.71395
1178.0	98.70439
1178.2	98.69484
1178.4	98.68528
1178.6	98.67572
1178.8	98.66617
1179.0	98.65661
1179.2	98.64706
1179.4	98.6375
1179.6	98.62795
1179.8	98.61839
1180.0	98.60883
1180.2	98.59928
1180.4	98.58972
1180.6	98.58017
1180.8	98.57061
1181.0	98.56105
1181.2	98.5515
1181.4	98.54194
1181.6	98.53239
1181.8	98.52726
1182.0	98.53351
1182.2	98.53975
1182.4	98.546
1182.6	98.55225
1182.8	98.5585
1183.0	98.56474
1183.2	98.57099
1183.4	98.57724
1183.6	98.58348
1183.8	98.58973
1184.0	98.59598
1184.2	98.60223
1184.4	98.60847
1184.6	98.61472
1184.8	98.62097
1185.0	98.62721
1185.2	98.63346
1185.4	98.63971
1185.6	98.64596
1185.8	98.6522
1186.0	98.65845
1186.2	98.6647
1186.4	98.67094
1186.6	98.67719
1186.8	98.68097
1187.0	98.67707
1187.2	98.67316
1187.4	98.66926
1187.6	98.66536
1187.8	98.66146
1188.0	98.65755
1188.2	98.65365
1188.4	98.64975
1188.6	98.64585
1188.8	98.64194
1189.0	98.63804
1189.2	98.63414
1189.4	98.63024
1189.6	98.62633
1189.8	98.62243
1190.0	98.61853
1190.2	98.61463
1190.4	98.61072
1190.6	98.60682
1190.8	98.60292
1191.0	98.59902
1191.2	98.59511
1191.4	98.59121
1191.6	98.58731
1191.8	98.58377
1192.0	98.58162
1192.2	98.57948
1192.4	98.57733
1192.6	98.57518
1192.8	98.57304
1193.0	98.57089
1193.2	98.56874
1193.4	98.5666
1193.6	98.56445
1193.8	98.5623
1194.0	98.56016
1194.2	98.55801
1194.4	98.55586
1194.6	98.55372
1194.8	98.55157
1195.0	98.54942
1195.2	98.54728
1195.4	98.54513
1195.6	98.54299
1195.8	98.54084
1196.0	98.53869
1196.2	98.53655
1196.4	98.5344
1196.6	98.53225
1196.8	98.53144
1197.0	98.53718
1197.2	98.54293
1197.4	98.54867
1197.6	98.55441
1197.8	98.56015
1198.0	98.56589
1198.2	98.57163
1198.4	98.57738
1198.6	98.58312
1198.8	98.58886
1199.0	98.5946
1199.2	98.60034
1199.4	98.60608
1199.6	98.61183
1199.8	98.61757
1200.0	98.62331
1200.2	98.62905
1200.4	98.63479
1200.6	98.64053
1200.8	98.64628
1201.0	98.65202
1201.2	98.65776
1201.4	98.6635
1201.6	98.66924
1201.8	98.6736
1202.0	98.66891
1202.2	98.66421
1202.4	98.65952
1202.6	98.65483
1202.8	98.65013
1203.0	98.64544
1203.2	98.64074
1203.4	98.63605
1203.6	98.63136
1203.8	98.62666
1204.0	98.62197
1204.2	98.61728
1204.4	98.61258
1204.6	98.60789
1204.8	98.60319
1205.0	98.5985
1205.2	98.59381
1205.4	98.58911
1205.6	98.58442
1205.8	98.57972
1206.0	98.57503
1206.2	98.57034
1206.4	98.56564
1206.6	98.56095
1206.8	98.55722
1207.0	98.56259
1207.2	98.56796
1207.4	98.57333
1207.6	98.5787
1207.8	98.58407
1208.0	98.58944
1208.2	98.59481
1208.4	98.60018
1208.6	98.60555
1208.8	98.61092
1209.0	98.61629
1209.2	98.62166
1209.4	98.62703
1209.6	98.6324
1209.8	98.63777
1210.0	98.64314
1210.2	98.64851
1210.4	98.65388
1210.6	98.65925
1210.8	98.66462
1211.0	98.66999
1211.2	98.67536
1211.4	98.68073
1211.6	98.6861
1211.8	98.69066
1212.0	98.68224
1212.2	98.67381
1212.4	98.66539
1212.6	98.65697
1212.8	98.64855
1213.0	98.64012
1213.2	98.6317
1213.4	98.62328
1213.6	98.61485
1213.8	98.60643
1214.0	98.59801
1214.2	98.58958
1214.4	98.58116
1214.6	98.57274
1214.8	98.56432
1215.0	98.55589
1215.2	98.54747
1215.4	98.53905
1215.6	98.53062
1215.8	98.5222
1216.0	98.51378
1216.2	98.50536
1216.4	98.49693
1216.6	98.48851
1216.8	98.48046
1217.0	98.48932
1217.2	98.49818
1217.4	98.50704
1217.6	98.5159
1217.8	98.52476
1218.0	98.53362
1218.2	98.54248
1218.4	98.55134
1218.6	98.5602
1218.8	98.56906
1219.0	98.57792
1219.2	98.58678
1219.4	98.59564
1219.6	98.6045
1219.8	98.61336
1220.0	98.62222
1220.2	98.63108
1220.4	98.63994
1220.6	98.6488
1220.8	98.65766
1221.0	98.66652
1221.2	98.67538
1221.4	98.68424
1221.6	98.6931
1221.8	98.70196
1222.0	98.69811
1222.2	98.69406
1222.4	98.69001
1222.6	98.68596
1222.8	98.6819
1223.0	98.67785
1223.2	98.6738
1223.4	98.66975
1223.6	98.6657
1223.8	98.66165
1224.0	98.6576
1224.2	98.65354
1224.4	98.64949
1224.6	98.64544
1224.8	98.64139
1225.0	98.63734
1225.2	98.63329
1225.4	98.62923
1225.6	98.62518
1225.8	98.62113
1226.0	98.61708
1226.2	98.61303
1226.4	98.60898
1226.6	98.60493
1226.8	98.60087
1227.0	98.60479
1227.2	98.60915
1227.4	98.6135
1227.6	98.61786
1227.8	98.62221
1228.0	98.62657
1228.2	98.63093
1228.4	98.63528
1228.6	98.63964
1228.8	98.64399
1229.0	98.64835
1229.2	98.65271
1229.4	98.65706
1229.6	98.66142
1229.8	98.66577
1230.0	98.67013
1230.2	98.67449
1230.4	98.67884
1230.6	98.6832
1230.8	98.68755
1231.0	98.69191
1231.2	98.69626
1231.4	98.70062
1231.6	98.70498
1231.8	98.70933
1232.0	98.70434
1232.2	98.69843
1232.4	98.69251
1232.6	98.6866
1232.8	98.68069
1233.0	98.67478
1233.2	98.66887
1233.4	98.66296
1233.6	98.65704
1233.8	98.65113
1234.0	98.64522
1234.2	98.63931
1234.4	98.6334
1234.6	98.62748
1234.8	98.62157
1235.0	98.61566
1235.2	98.60975
1235.4	98.60384
1235.6	98.59793
1235.8	98.59201
1236.0	98.5861
1236.2	98.58019
1236.4	98.57428
1236.6	98.56837
1236.8	98.56246
1237.0	98.56698
1237.2	98.57301
1237.4	98.57905
1237.6	98.58508
1237.8	98.59111
1238.0	98.59715
1238.2	98.60318
1238.4	98.60922
1238.6	98.61525
1238.8	98.62128
1239.0	98.62732
1239.2	98.63335
1239.4	98.63938
1239.6	98.64542
1239.8	98.65145
1240.0	98.65748
1240.2	98.66352
1240.4	98.66955
1240.6	98.67558
1240.8	98.68162
1241.0	98.68765
1241.2	98.69368
1241.4	98.69972
1241.6	98.70575
1241.8	98.71178
1242.0	98.71296
1242.2	98.71319
1242.4	98.71342
1242.6	98.71365
1242.8	98.71388
1243.0	98.71412
1243.2	98.71435
1243.4	98.71458
1243.6	98.71481
1243.8	98.71504
1244.0	98.71527
1244.2	98.7155
1244.4	98.71573
1244.6	98.71596
1244.8	98.71619
1245.0	98.71642
1245.2	98.71665
1245.4	98.71688
1245.6	98.71712
1245.8	98.71735
1246.0	98.71758
1246.2	98.71781
1246.4	98.71804
1246.6	98.71827
1246.8	98.7185
1247.0	98.71953
1247.2	98.72075
1247.4	98.72198
1247.6	98.7232
1247.8	98.72443
1248.0	98.72565
1248.2	98.72688
1248.4	98.7281
1248.6	98.72933
1248.8	98.73055
1249.0	98.73178
1249.2	98.73301
1249.4	98.73423
1249.6	98.73546
1249.8	98.73668
1250.0	98.73791
1250.2	98.73913
1250.4	98.74036
1250.6	98.74158
1250.8	98.74281
1251.0	98.74403
1251.2	98.74526
1251.4	98.74649
1251.6	98.74771
1251.8	98.74894
1252.0	98.74437
1252.2	98.73801
1252.4	98.73165
1252.6	98.72529
1252.8	98.71893
1253.0	98.71257
1253.2	98.70621
1253.4	98.69984
1253.6	98.69348
1253.8	98.68712
1254.0	98.68076
1254.2	98.6744
1254.4	98.66804
1254.6	98.66168
1254.8	98.65532
1255.0	98.64895
1255.2	98.64259
1255.4	98.63623
1255.6	98.62987
1255.8	98.62351
1256.0	98.61715
1256.2	98.61079
1256.4	98.60443
1256.6	98.59806
1256.8	98.5917
1257.0	98.59181
1257.2	98.59435
1257.4	98.5969
1257.6	98.59944
1257.8	98.60199
1258.0	98.60453
1258.2	98.60708
1258.4	98.60962
1258.6	98.61217
1258.8	98.61471
1259.0	98.61726
1259.2	98.6198
1259.4	98.62235
1259.6	98.62489
1259.8	98.62744
1260.0	98.62998
1260.2	98.63253
1260.4	98.63507
1260.6	98.63762
1260.8	98.64016
1261.0	98.64271
1261.2	98.64525
1261.4	98.6478
1261.6	98.65034
1261.8	98.65289
1262.0	98.65384
1262.2	98.65408
1262.4	98.65431
1262.6	98.65455
1262.8	98.65478
1263.0	98.65502
1263.2	98.65526
1263.4	98.65549
1263.6	98.65573
1263.8	98.65596
1264.0	98.6562
1264.2	98.65644
1264.4	98.65667
1264.6	98.65691
1264.8	98.65714
1265.0	98.65738
1265.2	98.65762
1265.4	98.65785
1265.6	98.65809
1265.8	98.65832
1266.0	98.65856
1266.2	98.6588
1266.4	98.65903
1266.6	98.65927
1266.8	98.6595
1267.0	98.66294
1267.2	98.66808
1267.4	98.67322
1267.6	98.67836
1267.8	98.68351
1268.0	98.68865
1268.2	98.69379
1268.4	98.69893
1268.6	98.70407
1268.8	98.70922
1269.0	98.71436
1269.2	98.7195
1269.4	98.72464
1269.6	98.72978
1269.8	98.73492
1270.0	98.74007
1270.2	98.74521
1270.4	98.75035
1270.6	98.75549
1270.8	98.76063
1271.0	98.76578
1271.2	98.77092
1271.4	98.77606
1271.6	98.7812
1271.8	98.78634
1272.0	98.78418
1272.2	98.77745
1272.4	98.77072
1272.6	98.76398
1272.8	98.75725
1273.0	98.75052
1273.2	98.74379
1273.4	98.73705
1273.6	98.73032
1273.8	98.72359
1274.0	98.71686
1274.2	98.71013
1274.4	98.70339
1274.6	98.69666
1274.8	98.68993
1275.0	98.6832
1275.2	98.67646
1275.4	98.66973
1275.6	98.663
1275.8	98.65627
1276.0	98.64954
1276.2	98.6428
1276.4	98.63607
1276.6	98.62934
1276.8	98.62261
1277.0	98.6236
1277.2	98.63022
1277.4	98.63684
1277.6	98.64346
1277.8	98.65008
1278.0	98.6567
1278.2	98.66332
1278.4	98.66994
1278.6	98.67656
1278.8	98.68318
1279.0	98.6898
1279.2	98.69643
1279.4	98.70305
1279.6	98.70967
1279.8	98.71629
1280.0	98.72291
1280.2	98.72953
1280.4	98.73615
1280.6	98.74277
1280.8	98.74939
1281.0	98.75601
1281.2	98.76263
1281.4	98.76926
1281.6	98.77588
1281.8	98.7825
1282.0	98.78305
1282.2	98.77845
1282.4	98.77386
1282.6	98.76926
1282.8	98.76467
1283.0	98.76007
1283.2	98.75548
1283.4	98.75088
1283.6	98.74629
1283.8	98.74169
1284.0	98.7371
1284.2	98.7325
1284.4	98.72791
1284.6	98.72331
1284.8	98.71872
1285.0	98.71413
1285.2	98.70953
1285.4	98.70494
1285.6	98.70034
1285.8	98.69575
1286.0	98.69115
1286.2	98.68656
1286.4	98.68196
1286.6	98.67737
1286.8	98.67277
1287.0	98.67479
1287.2	98.6833
1287.4	98.69182
1287.6	98.70033
1287.8	98.70885
1288.0	98.71736
1288.2	98.72588
1288.4	98.73439
1288.6	98.74291
1288.8	98.75142
1289.0	98.75994
1289.2	98.76845
1289.4	98.77697
1289.6	98.78548
1289.8	98.794
1290.0	98.80251
1290.2	98.81103
1290.4	98.81954
1290.6	98.82806
1290.8	98.83657
1291.0	98.84509
1291.2	98.8536
1291.4	98.86211
1291.6	98.87063
1291.8	98.87914
1292.0	98.88191
1292.2	98.87811
1292.4	98.87432
1292.6	98.87053
1292.8	98.86673
1293.0	98.86294
1293.2	98.85914
1293.4	98.85535
1293.6	98.85156
1293.8	98.84776
1294.0	98.84397
1294.2	98.84017
1294.4	98.83638
1294.6	98.83259
1294.8	98.82879
1295.0	98.825
1295.2	98.8212
1295.4	98.81741
1295.6	98.81362
1295.8	98.80982
1296.0	98.80603
1296.2	98.80223
1296.4	98.79844
1296.6	98.79465
1296.8	98.79085
1297.0	98.79061
1297.2	98.79506
1297.4	98.7995
1297.6	98.80395
1297.8	98.8084
1298.0	98.81285
1298.2	98.8173
1298.4	98.82175
1298.6	98.8262
1298.8	98.83064
1299.0	98.83509
1299.2	98.83954
1299.4	98.84399
1299.6	98.84844
1299.8	98.85289
1300.0	98.85734
1300.2	98.86179
1300.4	98.86623
1300.6	98.87068
1300.8	98.87513
1301.0	98.87958
1301.2	98.88403
1301.4	98.88848
1301.6	98.89293
1301.8	98.89737
1302.0	98.89803
1302.2	98.89283
1302.4	98.88763
1302.6	98.88243
1302.8	98.87723
1303.0	98.87203
1303.2	98.86683
1303.4	98.86163
1303.6	98.85643
1303.8	98.85123
1304.0	98.84603
1304.2	98.84083
1304.4	98.83563
1304.6	98.83043
1304.8	98.82523
1305.0	98.82003
1305.2	98.81483
1305.4	98.80963
1305.6	98.80443
1305.8	98.79923
1306.0	98.79403
1306.2	98.78883
1306.4	98.78363
1306.6	98.77843
1306.8	98.77323
1307.0	98.77086
1307.2	98.7736
1307.4	98.77633
1307.6	98.77906
1307.8	98.7818
1308.0	98.78453
1308.2	98.78726
1308.4	98.79
1308.6	98.79273
1308.8	98.79547
1309.0	98.7982
1309.2	98.80093
1309.4	98.80367
1309.6	98.8064
1309.8	98.80913
1310.0	98.81187
1310.2	98.8146
1310.4	98.81734
1310.6	98.82007
1310.8	98.8228
1311.0	98.82554
1311.2	98.82827
1311.4	98.831
1311.6	98.83374
1311.8	98.83647
1312.0	98.8382
1312.2	98.83779
1312.4	98.83739
1312.6	98.83698
1312.8	98.83657
1313.0	98.83617
1313.2	98.83576
1313.4	98.83535
1313.6	98.83495
1313.8	98.83454
1314.0	98.83413
1314.2	98.83373
1314.4	98.83332
1314.6	98.83291
1314.8	98.83251
1315.0	98.8321
1315.2	98.83169
1315.4	98.83129
1315.6	98.83088
1315.8	98.83048
1316.0	98.83007
1316.2	98.82966
1316.4	98.82926
1316.6	98.82885
1316.8	98.82844
1317.0	98.82747
1317.2	98.82506
1317.4	98.82266
1317.6	98.82025
1317.8	98.81785
1318.0	98.81544
1318.2	98.81304
1318.4	98.81063
1318.6	98.80822
1318.8	98.80582
1319.0	98.80341
1319.2	98.80101
1319.4	98.7986
1319.6	98.7962
1319.8	98.79379
1320.0	98.79139
1320.2	98.78898
1320.4	98.78657
1320.6	98.78417
1320.8	98.78176
1321.0	98.77936
1321.2	98.77695
1321.4	98.77455
1321.6	98.77214
1321.8	98.76973
1322.0	98.76923
1322.2	98.77456
1322.4	98.7799
1322.6	98.78523
1322.8	98.79056
1323.0	98.7959
1323.2	98.80123
1323.4	98.80656
1323.6	98.81189
1323.8	98.81723
1324.0	98.82256
1324.2	98.82789
1324.4	98.83323
1324.6	98.83856
1324.8	98.84389
1325.0	98.84923
1325.2	98.85456
1325.4	98.85989
1325.6	98.86523
1325.8	98.87056
1326.0	98.87589
1326.2	98.88123
1326.4	98.88656
1326.6	98.89189
1326.8	98.89723
1327.0	98.89958
1327.2	98.89067
1327.4	98.88175
1327.6	98.87284
1327.8	98.86392
1328.0	98.85501
1328.2	98.84609
1328.4	98.83718
1328.6	98.82826
1328.8	98.81935
1329.0	98.81043
1329.2	98.80152
1329.4	98.7926
1329.6	98.78369
1329.8	98.77477
1330.0	98.76586
1330.2	98.75694
1330.4	98.74803
1330.6	98.73911
1330.8	98.7302
1331.0	98.72128
1331.2	98.71237
1331.4	98.70345
1331.6	98.69454
1331.8	98.68562
1332.0	98.67847
1332.2	98.67985
1332.4	98.68122
1332.6	98.68259
1332.8	98.68397
1333.0	98.68534
1333.2	98.68672
1333.4	98.68809
1333.6	98.68946
1333.8	98.69084
1334.0	98.69221
1334.2	98.69358
1334.4	98.69496
1334.6	98.69633
1334.8	98.6977
1335.0	98.69908
1335.2	98.70045
1335.4	98.70182
1335.6	98.7032
1335.8	98.70457
1336.0	98.70594
1336.2	98.70732
1336.4	98.70869
1336.6	98.71006
1336.8	98.71144
1337.0	98.71119
1337.2	98.70052
1337.4	98.68985
1337.6	98.67918
1337.8	98.66851
1338.0	98.65785
1338.2	98.64718
1338.4	98.63651
1338.6	98.62584
1338.8	98.61517
1339.0	98.60451
1339.2	98.59384
1339.4	98.58317
1339.6	98.5725
1339.8	98.56183
1340.0	98.55116
1340.2	98.5405
1340.4	98.52983
1340.6	98.51916
1340.8	98.50849
1341.0	98.49782
1341.2	98.48716
1341.4	98.47649
1341.6	98.46582
1341.8	98.45515
1342.0	98.44617
1342.2	98.45272
1342.4	98.45927
1342.6	98.46582
1342.8	98.47236
1343.0	98.47891
1343.2	98.48546
1343.4	98.49201
1343.6	98.49856
1343.8	98.50511
1344.0	98.51166
1344.2	98.51821
1344.4	98.52476
1344.6	98.53131
1344.8	98.53785
1345.0	98.5444
1345.2	98.55095
1345.4	98.5575
1345.6	98.56405
1345.8	98.5706
1346.0	98.57715
1346.2	98.5837
1346.4	98.59025
1346.6	98.59679
1346.8	98.60334
1347.0	98.60979
1347.2	98.61457
1347.4	98.61935
1347.6	98.62414
1347.8	98.62892
1348.0	98.63371
1348.2	98.63849
1348.4	98.64328
1348.6	98.64806
1348.8	98.65284
1349.0	98.65763
1349.2	98.66241
1349.4	98.6672
1349.6	98.67198
1349.8	98.67677
1350.0	98.68155
1350.2	98.68633
1350.4	98.69112
1350.6	98.6959
1350.8	98.70069
1351.0	98.70547
1351.2	98.71026
1351.4	98.71504
1351.6	98.71982
1351.8	98.72461
1352.0	98.72923
1352.2	98.72705
1352.4	98.72487
1352.6	98.72269
1352.8	98.72051
1353.0	98.71833
1353.2	98.71615
1353.4	98.71397
1353.6	98.71179
1353.8	98.70961
1354.0	98.70743
1354.2	98.70525
1354.4	98.70308
1354.6	98.7009
1354.8	98.69872
1355.0	98.69654
1355.2	98.69436
1355.4	98.69218
1355.6	98.69
1355.8	98.68782
1356.0	98.68564
1356.2	98.68346
1356.4	98.68128
1356.6	98.6791
1356.8	98.67693
1357.0	98.67475
1357.2	98.68286
1357.4	98.69112
1357.6	98.69937
1357.8	98.70762
1358.0	98.71587
1358.2	98.72413
1358.4	98.73238
1358.6	98.74063
1358.8	98.74888
1359.0	98.75714
1359.2	98.76539
1359.4	98.77364
1359.6	98.78189
1359.8	98.79014
1360.0	98.7984
1360.2	98.80665
1360.4	98.8149
1360.6	98.82315
1360.8	98.83141
1361.0	98.83966
1361.2	98.84791
1361.4	98.85616
1361.6	98.86442
1361.8	98.87267
1362.0	98.88092
1362.2	98.87195
1362.4	98.86207
1362.6	98.85218
1362.8	98.8423
1363.0	98.83242
1363.2	98.82254
1363.4	98.81266
1363.6	98.80278
1363.8	98.7929
1364.0	98.78302
1364.2	98.77314
1364.4	98.76326
1364.6	98.75338
1364.8	98.7435
1365.0	98.73362
1365.2	98.72374
1365.4	98.71386
1365.6	98.70398
1365.8	98.6941
1366.0	98.68421
1366.2	98.67433
1366.4	98.66445
1366.6	98.65457
1366.8	98.64469
1367.0	98.63481
1367.2	98.64172
1367.4	98.65022
1367.6	98.65872
1367.8	98.66722
1368.0	98.67572
1368.2	98.68423
1368.4	98.69273
1368.6	98.70123
1368.8	98.70973
1369.0	98.71823
1369.2	98.72674
1369.4	98.73524
1369.6	98.74374
1369.8	98.75224
1370.0	98.76074
1370.2	98.76924
1370.4	98.77775
1370.6	98.78625
1370.8	98.79475
1371.0	98.80325
1371.2	98.81175
1371.4	98.82026
1371.6	98.82876
1371.8	98.83726
1372.0	98.84576
1372.2	98.83399
1372.4	98.81935
1372.6	98.80472
1372.8	98.79008
1373.0	98.77545
1373.2	98.76081
1373.4	98.74617
1373.6	98.73154
1373.8	98.7169
1374.0	98.70227
1374.2	98.68763
1374.4	98.673
1374.6	98.65836
1374.8	98.64372
1375.0	98.62909
1375.2	98.61445
1375.4	98.59982
1375.6	98.58518
1375.8	98.57054
1376.0	98.55591
1376.2	98.54127
1376.4	98.52664
1376.6	98.512
1376.8	98.49736
1377.0	98.48273
1377.2	98.48014
1377.4	98.47987
1377.6	98.4796
1377.8	98.47932
1378.0	98.47905
1378.2	98.47877
1378.4	98.4785
1378.6	98.47822
1378.8	98.47795
1379.0	98.47767
1379.2	98.4774
1379.4	98.47712
1379.6	98.47685
1379.8	98.47657
1380.0	98.4763
1380.2	98.47603
1380.4	98.47575
1380.6	98.47548
1380.8	98.4752
1381.0	98.47493
1381.2	98.47465
1381.4	98.47438
1381.6	98.4741
1381.8	98.47383
1382.0	98.47355
1382.2	98.48178
1382.4	98.4921
1382.6	98.50242
1382.8	98.51273
1383.0	98.52305
1383.2	98.53337
1383.4	98.54369
1383.6	98.55401
1383.8	98.56433
1384.0	98.57465
1384.2	98.58497
1384.4	98.59528
1384.6	98.6056
1384.8	98.61592
1385.0	98.62624
1385.2	98.63656
1385.4	98.64688
1385.6	98.6572
1385.8	98.66752
1386.0	98.67783
1386.2	98.68815
1386.4	98.69847
1386.6	98.70879
1386.8	98.71911
1387.0	98.72943
1387.2	98.717
1387.4	98.69761
1387.6	98.67821
1387.8	98.65881
1388.0	98.63942
1388.2	98.62002
1388.4	98.60062
1388.6	98.58123
1388.8	98.56183
1389.0	98.54243
1389.2	98.52304
1389.4	98.50364
1389.6	98.48424
1389.8	98.46484
1390.0	98.44545
1390.2	98.42605
1390.4	98.40665
1390.6	98.38726
1390.8	98.36786
1391.0	98.34846
1391.2	98.32907
1391.4	98.30967
1391.6	98.29027
1391.8	98.27087
1392.0	98.25148
1392.2	98.2502
1392.4	98.25567
1392.6	98.26114
1392.8	98.26662
1393.0	98.27209
1393.2	98.27757
1393.4	98.28304
1393.6	98.28851
1393.8	98.29399
1394.0	98.29946
1394.2	98.30493
1394.4	98.31041
1394.6	98.31588
1394.8	98.32135
1395.0	98.32683
1395.2	98.3323
1395.4	98.33778
1395.6	98.34325
1395.8	98.34872
1396.0	98.3542
1396.2	98.35967
1396.4	98.36514
1396.6	98.37062
1396.8	98.37609
1397.0	98.38157
1397.2	98.39054
1397.4	98.40109
1397.6	98.41163
1397.8	98.42218
1398.0	98.43272
1398.2	98.44326
1398.4	98.45381
1398.6	98.46435
1398.8	98.47489
1399.0	98.48544
1399.2	98.49598
1399.4	98.50653
1399.6	98.51707
1399.8	98.52761
1400.0	98.53816
1400.2	98.5487
1400.4	98.55924
1400.6	98.56979
1400.8	98.58033
1401.0	98.59088
1401.2	98.60142
1401.4	98.61196
1401.6	98.62251
1401.8	98.63305
1402.0	98.64359
1402.2	98.63851
1402.4	98.62518
1402.6	98.61185
1402.8	98.59852
1403.0	98.58518
1403.2	98.57185
1403.4	98.55852
1403.6	98.54519
1403.8	98.53186
1404.0	98.51852
1404.2	98.50519
1404.4	98.49186
1404.6	98.47853
1404.8	98.4652
1405.0	98.45186
1405.2	98.43853
1405.4	98.4252
1405.6	98.41187
1405.8	98.39854
1406.0	98.3852
1406.2	98.37187
1406.4	98.35854
1406.6	98.34521
1406.8	98.33188
1407.0	98.31854
1407.2	98.31438
1407.4	98.31589
1407.6	98.3174
1407.8	98.31891
1408.0	98.32042
1408.2	98.32194
1408.4	98.32345
1408.6	98.32496
1408.8	98.32647
1409.0	98.32798
1409.2	98.3295
1409.4	98.33101
1409.6	98.33252
1409.8	98.33403
1410.0	98.33554
1410.2	98.33705
1410.4	98.33857
1410.6	98.34008
1410.8	98.34159
1411.0	98.3431
1411.2	98.34461
1411.4	98.34613
1411.6	98.34764
1411.8	98.34915
1412.0	98.35066
1412.2	98.35512
1412.4	98.36171
1412.6	98.3683
1412.8	98.37489
1413.0	98.38148
1413.2	98.38807
1413.4	98.39466
1413.6	98.40126
1413.8	98.40785
1414.0	98.41444
1414.2	98.42103
1414.4	98.42762
1414.6	98.43421
1414.8	98.4408
1415.0	98.44739
1415.2	98.45398
1415.4	98.46057
1415.6	98.46716
1415.8	98.47375
1416.0	98.48034
1416.2	98.48693
1416.4	98.49352
1416.6	98.50011
1416.8	98.5067
1417.0	98.51329
1417.2	98.51227
1417.4	98.50484
1417.6	98.49741
1417.8	98.48999
1418.0	98.48256
1418.2	98.47514
1418.4	98.46771
1418.6	98.46029
1418.8	98.45286
1419.0	98.44544
1419.2	98.43801
1419.4	98.43059
1419.6	98.42316
1419.8	98.41574
1420.0	98.40831
1420.2	98.40088
1420.4	98.39346
1420.6	98.38603
1420.8	98.37861
1421.0	98.37118
1421.2	98.36376
1421.4	98.35633
1421.6	98.34891
1421.8	98.34148
1422.0	98.33406
1422.2	98.33647
1422.4	98.34847
1422.6	98.36047
1422.8	98.37247
1423.0	98.38447
1423.2	98.39647
1423.4	98.40847
1423.6	98.42048
1423.8	98.43248
1424.0	98.44448
1424.2	98.45648
1424.4	98.46848
1424.6	98.48048
1424.8	98.49248
1425.0	98.50448
1425.2	98.51648
1425.4	98.52848
1425.6	98.54048
1425.8	98.55248
1426.0	98.56448
1426.2	98.57648
1426.4	98.58848
1426.6	98.60048
1426.8	98.61248
1427.0	98.62448
1427.2	98.62689
1427.4	98.61848
1427.6	98.61008
1427.8	98.60167
1428.0	98.59326
1428.2	98.58485
1428.4	98.57644
1428.6	98.56804
1428.8	98.55963
1429.0	98.55122
1429.2	98.54281
1429.4	98.53441
1429.6	98.526
1429.8	98.51759
1430.0	98.50918
1430.2	98.50078
1430.4	98.49237
1430.6	98.48396
1430.8	98.47555
1431.0	98.46715
1431.2	98.45874
1431.4	98.45033
1431.6	98.44192
1431.8	98.43351
1432.0	98.42511
1432.2	98.41711
1432.4	98.40964
1432.6	98.40217
1432.8	98.39471
1433.0	98.38724
1433.2	98.37978
1433.4	98.37231
1433.6	98.36484
1433.8	98.35738
1434.0	98.34991
1434.2	98.34245
1434.4	98.33498
1434.6	98.32751
1434.8	98.32005
1435.0	98.31258
1435.2	98.30511
1435.4	98.29765
1435.6	98.29018
1435.8	98.28272
1436.0	98.27525
1436.2	98.26778
1436.4	98.26032
1436.6	98.25285
1436.8	98.24539
1437.0	98.23792
1437.2	98.23598
1437.4	98.24249
1437.6	98.249
1437.8	98.2555
1438.0	98.26201
1438.2	98.26851
1438.4	98.27502
1438.6	98.28152
1438.8	98.28803
1439.0	98.29453
1439.2	98.30104
1439.4	98.30755
1439.6	98.31405
1439.8	98.32056
1440.0	98.32706
1440.2	98.33357
1440.4	98.34007
1440.6	98.34658
1440.8	98.35309
1441.0	98.35959
1441.2	98.3661
1441.4	98.3726
1441.6	98.37911
1441.8	98.38561
1442.0	98.39212
1442.2	98.39807
1442.4	98.40303
1442.6	98.40798
1442.8	98.41294
1443.0	98.4179
1443.2	98.42285
1443.4	98.42781
1443.6	98.43277
1443.8	98.43773
1444.0	98.44268
1444.2	98.44764
1444.4	98.4526
1444.6	98.45756
1444.8	98.46251
1445.0	98.46747
1445.2	98.47243
1445.4	98.47738
1445.6	98.48234
1445.8	98.4873
1446.0	98.49226
1446.2	98.49721
1446.4	98.50217
1446.6	98.50713
1446.8	98.51208
1447.0	98.51704
1447.2	98.51857
1447.4	98.51287
1447.6	98.50716
1447.8	98.50146
1448.0	98.49576
1448.2	98.49006
1448.4	98.48436
1448.6	98.47866
1448.8	98.47296
1449.0	98.46726
1449.2	98.46156
1449.4	98.45585
1449.6	98.45015
1449.8	98.44445
1450.0	98.43875
1450.2	98.43305
1450.4	98.42735
1450.6	98.42165
1450.8	98.41595
1451.0	98.41025
1451.2	98.40454
1451.4	98.39884
1451.6	98.39314
1451.8	98.38744
1452.0	98.38174
1452.2	98.37937
1452.4	98.38535
1452.6	98.39132
1452.8	98.3973
1453.0	98.40328
1453.2	98.40926
1453.4	98.41524
1453.6	98.42121
1453.8	98.42719
1454.0	98.43317
1454.2	98.43915
1454.4	98.44513
1454.6	98.4511
1454.8	98.45708
1455.0	98.46306
1455.2	98.46904
1455.4	98.47502
1455.6	98.48099
1455.8	98.48697
1456.0	98.49295
1456.2	98.49893
1456.4	98.50491
1456.6	98.51089
1456.8	98.51686
1457.0	98.52284
1457.2	98.52631
1457.4	98.52217
1457.6	98.51802
1457.8	98.51388
1458.0	98.50973
1458.2	98.50559
1458.4	98.50145
1458.6	98.4973
1458.8	98.49316
1459.0	98.48902
1459.2	98.48487
1459.4	98.48073
1459.6	98.47659
1459.8	98.47244
1460.0	98.4683
1460.2	98.46416
1460.4	98.46001
1460.6	98.45587
1460.8	98.45173
1461.0	98.44758
1461.2	98.44344
1461.4	98.4393
1461.6	98.43515
1461.8	98.43101
1462.0	98.42687
1462.2	98.42222
1462.4	98.41571
1462.6	98.40921
1462.8	98.4027
1463.0	98.39619
1463.2	98.38968
1463.4	98.38317
1463.6	98.37666
1463.8	98.37015
1464.0	98.36364
1464.2	98.35714
1464.4	98.35063
1464.6	98.34412
1464.8	98.33761
1465.0	98.3311
1465.2	98.32459
1465.4	98.31808
1465.6	98.31158
1465.8	98.30507
1466.0	98.29856
1466.2	98.29205
1466.4	98.28554
1466.6	98.27903
1466.8	98.27252
1467.0	98.26601
1467.2	98.26143
1467.4	98.26596
1467.6	98.27048
1467.8	98.27501
1468.0	98.27954
1468.2	98.28407
1468.4	98.28859
1468.6	98.29312
1468.8	98.29765
1469.0	98.30218
1469.2	98.3067
1469.4	98.31123
1469.6	98.31576
1469.8	98.32029
1470.0	98.32481
1470.2	98.32934
1470.4	98.33387
1470.6	98.3384
1470.8	98.34292
1471.0	98.34745
1471.2	98.35198
1471.4	98.3565
1471.6	98.36103
1471.8	98.36556
1472.0	98.37009
1472.2	98.37385
1472.4	98.37278
1472.6	98.37172
1472.8	98.37066
1473.0	98.36959
1473.2	98.36853
1473.4	98.36747
1473.6	98.3664
1473.8	98.36534
1474.0	98.36427
1474.2	98.36321
1474.4	98.36215
1474.6	98.36108
1474.8	98.36002
1475.0	98.35896
1475.2	98.35789
1475.4	98.35683
1475.6	98.35576
1475.8	98.3547
1476.0	98.35364
1476.2	98.35257
1476.4	98.35151
1476.6	98.35045
1476.8	98.34938
1477.0	98.34832
1477.2	98.34767
1477.4	98.35078
1477.6	98.35389
1477.8	98.35701
1478.0	98.36012
1478.2	98.36323
1478.4	98.36634
1478.6	98.36945
1478.8	98.37256
1479.0	98.37567
1479.2	98.37878
1479.4	98.38189
1479.6	98.385
1479.8	98.38811
1480.0	98.39122
1480.2	98.39434
1480.4	98.39745
1480.6	98.40056
1480.8	98.40367
1481.0	98.40678
1481.2	98.40989
1481.4	98.413
1481.6	98.41611
1481.8	98.41922
1482.0	98.42233
1482.2	98.42543
1482.4	98.42827
1482.6	98.43112
1482.8	98.43396
1483.0	98.4368
1483.2	98.43965
1483.4	98.44249
1483.6	98.44533
1483.8	98.44818
1484.0	98.45102
1484.2	98.45387
1484.4	98.45671
1484.6	98.45955
1484.8	98.4624
1485.0	98.46524
1485.2	98.46809
1485.4	98.47093
1485.6	98.47377
1485.8	98.47662
1486.0	98.47946
1486.2	98.4823
1486.4	98.48515
1486.6	98.48799
1486.8	98.49084
1487.0	98.49368
1487.2	98.49628
1487.4	98.48994
1487.6	98.4836
1487.8	98.47726
1488.0	98.47092
1488.2	98.46458
1488.4	98.45824
1488.6	98.4519
1488.8	98.44556
1489.0	98.43921
1489.2	98.43287
1489.4	98.42653
1489.6	98.42019
1489.8	98.41385
1490.0	98.40751
1490.2	98.40117
1490.4	98.39483
1490.6	98.38849
1490.8	98.38215
1491.0	98.37581
1491.2	98.36947
1491.4	98.36312
1491.6	98.35678
1491.8	98.35044
1492.0	98.3441
1492.2	98.33776
1492.4	98.33342
1492.6	98.32911
1492.8	98.32479
1493.0	98.32047
1493.2	98.31615
1493.4	98.31184
1493.6	98.30752
1493.8	98.3032
1494.0	98.29889
1494.2	98.29457
1494.4	98.29025
1494.6	98.28593
1494.8	98.28162
1495.0	98.2773
1495.2	98.27298
1495.4	98.26866
1495.6	98.26435
1495.8	98.26003
1496.0	98.25571
1496.2	98.2514
1496.4	98.24708
1496.6	98.24276
1496.8	98.23844
1497.0	98.23413
1497.2	98.22981
1497.4	98.23663
1497.6	98.244
1497.8	98.25137
1498.0	98.25874
1498.2	98.26611
1498.4	98.27348
1498.6	98.28085
1498.8	98.28823
1499.0	98.2956
1499.2	98.30297
1499.4	98.31034
1499.6	98.31771
1499.8	98.32508
1500.0	98.33246
1500.2	98.33983
1500.4	98.3472
1500.6	98.35457
1500.8	98.36194
1501.0	98.36931
1501.2	98.37668
1501.4	98.38406
1501.6	98.39143
1501.8	98.3988
1502.0	98.40617
1502.2	98.41354
1502.4	98.41069
1502.6	98.40689
1502.8	98.40309
1503.0	98.39929
1503.2	98.39549
1503.4	98.39169
1503.6	98.38789
1503.8	98.38409
1504.0	98.38029
1504.2	98.37649
1504.4	98.37269
1504.6	98.36889
1504.8	98.36509
1505.0	98.36129
1505.2	98.3575
1505.4	98.3537
1505.6	98.3499
1505.8	98.3461
1506.0	98.3423
1506.2	98.3385
1506.4	98.3347
1506.6	98.3309
1506.8	98.3271
1507.0	98.3233
1507.2	98.3195
1507.4	98.31667
1507.6	98.31396
1507.8	98.31126
1508.0	98.30856
1508.2	98.30586
1508.4	98.30316
1508.6	98.30045
1508.8	98.29775
1509.0	98.29505
1509.2	98.29235
1509.4	98.28965
1509.6	98.28694
1509.8	98.28424
1510.0	98.28154
1510.2	98.27884
1510.4	98.27614
1510.6	98.27343
1510.8	98.27073
1511.0	98.26803
1511.2	98.26533
1511.4	98.26263
1511.6	98.25992
1511.8	98.25722
1512.0	98.25452
1512.2	98.25182
1512.4	98.25452
1512.6	98.25825
1512.8	98.26197
1513.0	98.26569
1513.2	98.26942
1513.4	98.27314
1513.6	98.27687
1513.8	98.28059
1514.0	98.28431
1514.2	98.28804
1514.4	98.29176
1514.6	98.29548
1514.8	98.29921
1515.0	98.30293
1515.2	98.30665
1515.4	98.31038
1515.6	98.3141
1515.8	98.31782
1516.0	98.32155
1516.2	98.32527
1516.4	98.329
1516.6	98.33272
1516.8	98.33644
1517.0	98.34017
1517.2	98.34389
1517.4	98.34624
1517.6	98.34826
1517.8	98.35027
1518.0	98.35229
1518.2	98.3543
1518.4	98.35632
1518.6	98.35834
1518.8	98.36035
1519.0	98.36237
1519.2	98.36438
1519.4	98.3664
1519.6	98.36842
1519.8	98.37043
1520.0	98.37245
1520.2	98.37446
1520.4	98.37648
1520.6	98.3785
1520.8	98.38051
1521.0	98.38253
1521.2	98.38454
1521.4	98.38656
1521.6	98.38858
1521.8	98.39059
1522.0	98.39261
1522.2	98.39462
1522.4	98.38622
1522.6	98.37466
1522.8	98.3631
1523.0	98.35154
1523.2	98.33998
1523.4	98.32842
1523.6	98.31686
1523.8	98.3053
1524.0	98.29374
1524.2	98.28218
1524.4	98.27062
1524.6	98.25906
1524.8	98.2475
1525.0	98.23594
1525.2	98.22438
1525.4	98.21282
1525.6	98.20126
1525.8	98.1897
1526.0	98.17814
1526.2	98.16658
1526.4	98.15502
1526.6	98.14346
1526.8	98.1319
1527.0	98.12034
1527.2	98.10878
1527.4	98.10923
1527.6	98.11411
1527.8	98.11898
1528.0	98.12385
1528.2	98.12873
1528.4	98.1336
1528.6	98.13847
1528.8	98.14335
1529.0	98.14822
1529.2	98.1531
1529.4	98.15797
1529.6	98.16284
1529.8	98.16772
1530.0	98.17259
1530.2	98.17747
1530.4	98.18234
1530.6	98.18721
1530.8	98.19209
1531.0	98.19696
1531.2	98.20184
1531.4	98.20671
1531.6	98.21158
1531.8	98.21646
1532.0	98.22133
1532.2	98.22621
1532.4	98.2304
1532.6	98.23429
1532.8	98.23819
1533.0	98.24208
1533.2	98.24598
1533.4	98.24987
1533.6	98.25377
1533.8	98.25766
1534.0	98.26155
1534.2	98.26545
1534.4	98.26934
1534.6	98.27324
1534.8	98.27713
1535.0	98.28103
1535.2	98.28492
1535.4	98.28881
1535.6	98.29271
1535.8	98.2966
1536.0	98.3005
1536.2	98.30439
1536.4	98.30829
1536.6	98.31218
1536.8	98.31607
1537.0	98.31997
1537.2	98.32386
1537.4	98.32009
1537.6	98.31232
1537.8	98.30455
1538.0	98.29678
1538.2	98.28901
1538.4	98.28124
1538.6	98.27347
1538.8	98.2657
1539.0	98.25792
1539.2	98.25015
1539.4	98.24238
1539.6	98.23461
1539.8	98.22684
1540.0	98.21907
1540.2	98.2113
1540.4	98.20353
1540.6	98.19576
1540.8	98.18798
1541.0	98.18021
1541.2	98.17244
1541.4	98.16467
1541.6	98.1569
1541.8	98.14913
1542.0	98.14136
1542.2	98.13359
1542.4	98.12767
1542.6	98.12288
1542.8	98.1181
1543.0	98.11332
1543.2	98.10853
1543.4	98.10375
1543.6	98.09897
1543.8	98.09418
1544.0	98.0894
1544.2	98.08462
1544.4	98.07984
1544.6	98.07505
1544.8	98.07027
1545.0	98.06549
1545.2	98.0607
1545.4	98.05592
1545.6	98.05114
1545.8	98.04635
1546.0	98.04157
1546.2	98.03679
1546.4	98.032
1546.6	98.02722
1546.8	98.02244
1547.0	98.01765
1547.2	98.01287
1547.4	98.01481
1547.6	98.02156
1547.8	98.0283
1548.0	98.03505
1548.2	98.0418
1548.4	98.04855
1548.6	98.0553
1548.8	98.06204
1549.0	98.06879
1549.2	98.07554
1549.4	98.08229
1549.6	98.08903
1549.8	98.09578
1550.0	98.10253
1550.2	98.10928
1550.4	98.11602
1550.6	98.12277
1550.8	98.12952
1551.0	98.13627
1551.2	98.14301
1551.4	98.14976
1551.6	98.15651
1551.8	98.16326
1552.0	98.17
1552.2	98.17675
1552.4	98.18118
1552.6	98.18367
1552.8	98.18616
1553.0	98.18865
1553.2	98.19115
1553.4	98.19364
1553.6	98.19613
1553.8	98.19862
1554.0	98.20112
1554.2	98.20361
1554.4	98.2061
1554.6	98.20859
1554.8	98.21109
1555.0	98.21358
1555.2	98.21607
1555.4	98.21856
1555.6	98.22106
1555.8	98.22355
1556.0	98.22604
1556.2	98.22853
1556.4	98.23103
1556.6	98.23352
1556.8	98.23601
1557.0	98.2385
1557.2	98.24099
1557.4	98.23799
1557.6	98.22969
1557.8	98.22139
1558.0	98.21308
1558.2	98.20478
1558.4	98.19648
1558.6	98.18818
1558.8	98.17987
1559.0	98.17157
1559.2	98.16327
1559.4	98.15497
1559.6	98.14666
1559.8	98.13836
1560.0	98.13006
1560.2	98.12176
1560.4	98.11345
1560.6	98.10515
1560.8	98.09685
1561.0	98.08855
1561.2	98.08024
1561.4	98.07194
1561.6	98.06364
1561.8	98.05534
1562.0	98.04703
1562.2	98.03873
1562.4	98.03573
1562.6	98.03864
1562.8	98.04156
1563.0	98.04448
1563.2	98.04739
1563.4	98.05031
1563.6	98.05323
1563.8	98.05615
1564.0	98.05906
1564.2	98.06198
1564.4	98.0649
1564.6	98.06782
1564.8	98.07073
1565.0	98.07365
1565.2	98.07657
1565.4	98.07949
1565.6	98.0824
1565.8	98.08532
1566.0	98.08824
1566.2	98.09115
1566.4	98.09407
1566.6	98.09699
1566.8	98.09991
1567.0	98.10282
1567.2	98.10574
1567.4	98.10924
1567.6	98.11351
1567.8	98.11777
1568.0	98.12203
1568.2	98.12629
1568.4	98.13056
1568.6	98.13482
1568.8	98.13908
1569.0	98.14334
1569.2	98.1476
1569.4	98.15187
1569.6	98.15613
1569.8	98.16039
1570.0	98.16465
1570.2	98.16892
1570.4	98.17318
1570.6	98.17744
1570.8	98.1817
1571.0	98.18596
1571.2	98.19023
1571.4	98.19449
1571.6	98.19875
1571.8	98.20301
1572.0	98.20728
1572.2	98.21154
1572.4	98.21409
1572.6	98.21407
1572.8	98.21404
1573.0	98.21402
1573.2	98.214
1573.4	98.21397
1573.6	98.21395
1573.8	98.21392
1574.0	98.2139
1574.2	98.21388
1574.4	98.21385
1574.6	98.21383
1574.8	98.2138
1575.0	98.21378
1575.2	98.21375
1575.4	98.21373
1575.6	98.21371
1575.8	98.21368
1576.0	98.21366
1576.2	98.21363
1576.4	98.21361
1576.6	98.21358
1576.8	98.21356
1577.0	98.21354
1577.2	98.21351
1577.4	98.21322
1577.6	98.21245
1577.8	98.21168
1578.0	98.2109
1578.2	98.21013
1578.4	98.20936
1578.6	98.20859
1578.8	98.20782
1579.0	98.20705
1579.2	98.20628
1579.4	98.20551
1579.6	98.20473
1579.8	98.20396
1580.0	98.20319
1580.2	98.20242
1580.4	98.20165
1580.6	98.20088
1580.8	98.20011
1581.0	98.19934
1581.2	98.19857
1581.4	98.19779
1581.6	98.19702
1581.8	98.19625
1582.0	98.19548
1582.2	98.19471
1582.4	98.19496
1582.6	98.19733
1582.8	98.19971
1583.0	98.20208
1583.2	98.20446
1583.4	98.20683
1583.6	98.20921
1583.8	98.21158
1584.0	98.21396
1584.2	98.21633
1584.4	98.21871
1584.6	98.22108
1584.8	98.22346
1585.0	98.22583
1585.2	98.22821
1585.4	98.23058
1585.6	98.23296
1585.8	98.23533
1586.0	98.2377
1586.2	98.24008
1586.4	98.24245
1586.6	98.24483
1586.8	98.2472
1587.0	98.24958
1587.2	98.25195
1587.4	98.25304
1587.6	98.25095
1587.8	98.24885
1588.0	98.24676
1588.2	98.24466
1588.4	98.24257
1588.6	98.24047
1588.8	98.23838
1589.0	98.23628
1589.2	98.23419
1589.4	98.23209
1589.6	98.23
1589.8	98.2279
1590.0	98.2258
1590.2	98.22371
1590.4	98.22161
1590.6	98.21952
1590.8	98.21742
1591.0	98.21533
1591.2	98.21323
1591.4	98.21114
1591.6	98.20904
1591.8	98.20695
1592.0	98.20485
1592.2	98.20276
1592.4	98.20158
1592.6	98.20315
1592.8	98.20472
1593.0	98.2063
1593.2	98.20787
1593.4	98.20944
1593.6	98.21101
1593.8	98.21259
1594.0	98.21416
1594.2	98.21573
1594.4	98.2173
1594.6	98.21888
1594.8	98.22045
1595.0	98.22202
1595.2	98.22359
1595.4	98.22517
1595.6	98.22674
1595.8	98.22831
1596.0	98.22988
1596.2	98.23146
1596.4	98.23303
1596.6	98.2346
1596.8	98.23617
1597.0	98.23774
1597.2	98.23932
1597.4	98.24041
1597.6	98.23975
1597.8	98.23908
1598.0	98.23842
1598.2	98.23775
1598.4	98.23708
1598.6	98.23642
1598.8	98.23575
1599.0	98.23509
1599.2	98.23442
1599.4	98.23376
1599.6	98.23309
1599.8	98.23243
1600.0	98.23176
1600.2	98.2311
1600.4	98.23043
1600.6	98.22977
1600.8	98.2291
1601.0	98.22843
1601.2	98.22777
1601.4	98.2271
1601.6	98.22644
1601.8	98.22577
1602.0	98.22511
1602.2	98.22444
1602.4	98.22249
1602.6	98.21451
1602.8	98.20654
1603.0	98.19857
1603.2	98.19059
1603.4	98.18262
1603.6	98.17465
1603.8	98.16667
1604.0	98.1587
1604.2	98.15073
1604.4	98.14275
1604.6	98.13478
1604.8	98.12681
1605.0	98.11883
1605.2	98.11086
1605.4	98.10289
1605.6	98.09491
1605.8	98.08694
1606.0	98.07897
1606.2	98.07099
1606.4	98.06302
1606.6	98.05505
1606.8	98.04707
1607.0	98.0391
1607.2	98.03113
1607.4	98.02414
1607.6	98.02326
1607.8	98.02238
1608.0	98.02149
1608.2	98.02061
1608.4	98.01972
1608.6	98.01884
1608.8	98.01796
1609.0	98.01707
1609.2	98.01619
1609.4	98.01531
1609.6	98.01442
1609.8	98.01354
1610.0	98.01265
1610.2	98.01177
1610.4	98.01089
1610.6	98.01
1610.8	98.00912
1611.0	98.00824
1611.2	98.00735
1611.4	98.00647
1611.6	98.00559
1611.8	98.0047
1612.0	98.00382
1612.2	98.00293
1612.4	98.00269
1612.6	98.00809
1612.8	98.01349
1613.0	98.01888
1613.2	98.02428
1613.4	98.02967
1613.6	98.03507
1613.8	98.04046
1614.0	98.04586
1614.2	98.05125
1614.4	98.05665
1614.6	98.06204
1614.8	98.06744
1615.0	98.07284
1615.2	98.07823
1615.4	98.08363
1615.6	98.08902
1615.8	98.09442
1616.0	98.09981
1616.2	98.10521
1616.4	98.1106
1616.6	98.116
1616.8	98.12139
1617.0	98.12679
1617.2	98.13218
1617.4	98.13747
1617.6	98.14125
1617.8	98.14502
1618.0	98.14879
1618.2	98.15257
1618.4	98.15634
1618.6	98.16011
1618.8	98.16389
1619.0	98.16766
1619.2	98.17143
1619.4	98.1752
1619.6	98.17898
1619.8	98.18275
1620.0	98.18652
1620.2	98.1903
1620.4	98.19407
1620.6	98.19784
1620.8	98.20162
1621.0	98.20539
1621.2	98.20916
1621.4	98.21294
1621.6	98.21671
1621.8	98.22048
1622.0	98.22426
1622.2	98.22803
1622.4	98.23162
1622.6	98.22912
1622.8	98.22662
1623.0	98.22413
1623.2	98.22163
1623.4	98.21913
1623.6	98.21663
1623.8	98.21413
1624.0	98.21163
1624.2	98.20914
1624.4	98.20664
1624.6	98.20414
1624.8	98.20164
1625.0	98.19914
1625.2	98.19665
1625.4	98.19415
1625.6	98.19165
1625.8	98.18915
1626.0	98.18665
1626.2	98.18415
1626.4	98.18166
1626.6	98.17916
1626.8	98.17666
1627.0	98.17416
1627.2	98.17166
1627.4	98.16916
1627.6	98.16564
1627.8	98.16211
1628.0	98.15858
1628.2	98.15505
1628.4	98.15153
1628.6	98.148
1628.8	98.14447
1629.0	98.14094
1629.2	98.13741
1629.4	98.13388
1629.6	98.13035
1629.8	98.12682
1630.0	98.12329
1630.2	98.11976
1630.4	98.11623
1630.6	98.1127
1630.8	98.10917
1631.0	98.10564
1631.2	98.10211
1631.4	98.09858
1631.6	98.09506
1631.8	98.09153
1632.0	98.088
1632.2	98.08447
1632.4	98.08094
1632.6	98.08685
1632.8	98.0932
1633.0	98.09955
1633.2	98.10591
1633.4	98.11226
1633.6	98.11862
1633.8	98.12497
1634.0	98.13133
1634.2	98.13768
1634.4	98.14404
1634.6	98.15039
1634.8	98.15674
1635.0	98.1631
1635.2	98.16945
1635.4	98.17581
1635.6	98.18216
1635.8	98.18852
1636.0	98.19487
1636.2	98.20122
1636.4	98.20758
1636.6	98.21393
1636.8	98.22029
1637.0	98.22664
1637.2	98.233
1637.4	98.23935
1637.6	98.24434
1637.8	98.24922
1638.0	98.25409
1638.2	98.25896
1638.4	98.26383
1638.6	98.2687
1638.8	98.27357
1639.0	98.27844
1639.2	98.28331
1639.4	98.28818
1639.6	98.29306
1639.8	98.29793
1640.0	98.3028
1640.2	98.30767
1640.4	98.31254
1640.6	98.31741
1640.8	98.32228
1641.0	98.32715
1641.2	98.33203
1641.4	98.3369
1641.6	98.34177
1641.8	98.34664
1642.0	98.35151
1642.2	98.35638
1642.4	98.36125
1642.6	98.37336
1642.8	98.38644
1643.0	98.39952
1643.2	98.4126
1643.4	98.42568
1643.6	98.43876
1643.8	98.45184
1644.0	98.46492
1644.2	98.478
1644.4	98.49108
1644.6	98.50416
1644.8	98.51724
1645.0	98.53032
1645.2	98.54341
1645.4	98.55649
1645.6	98.56957
1645.8	98.58265
1646.0	98.59573
1646.2	98.60881
1646.4	98.62189
1646.6	98.63497
1646.8	98.64805
1647.0	98.66113
1647.2	98.67421
1647.4	98.68729
1647.6	98.68802
1647.8	98.68647
1648.0	98.68492
1648.2	98.68336
1648.4	98.68181
1648.6	98.68026
1648.8	98.6787
1649.0	98.67715
1649.2	98.6756
1649.4	98.67404
1649.6	98.67249
1649.8	98.67094
1650.0	98.66938
1650.2	98.66783
1650.4	98.66628
1650.6	98.66472
1650.8	98.66317
1651.0	98.66162
1651.2	98.66006
1651.4	98.65851
1651.6	98.65696
1651.8	98.6554
1652.0	98.65385
1652.2	98.6523
1652.4	98.65074
1652.6	98.666
1652.8	98.68528
1653.0	98.70456
1653.2	98.72384
1653.4	98.74312
1653.6	98.7624
1653.8	98.78168
1654.0	98.80096
1654.2	98.82024
1654.4	98.83952
1654.6	98.8588
1654.8	98.87808
1655.0	98.89736
1655.2	98.91664
1655.4	98.93592
1655.6	98.9552
1655.8	98.97448
1656.0	98.99376
1656.2	99.01304
1656.4	99.03232
1656.6	99.0516
1656.8	99.07088
1657.0	99.09016
1657.2	99.10944
1657.4	99.12872
1657.6	99.10419
1657.8	99.06657
1658.0	99.02896
1658.2	98.99135
1658.4	98.95373
1658.6	98.91612
1658.8	98.8785
1659.0	98.84089
1659.2	98.80328
1659.4	98.76566
1659.6	98.72805
1659.8	98.69044
1660.0	98.65282
1660.2	98.61521
1660.4	98.57759
1660.6	98.53998
1660.8	98.50237
1661.0	98.46475
1661.2	98.42714
1661.4	98.38953
1661.6	98.35191
1661.8	98.3143
1662.0	98.27669
1662.2	98.23907
1662.4	98.20146
1662.6	98.17963
1662.8	98.16354
1663.0	98.14746
1663.2	98.13137
1663.4	98.11529
1663.6	98.0992
1663.8	98.08312
1664.0	98.06703
1664.2	98.05095
1664.4	98.03486
1664.6	98.01877
1664.8	98.00269
1665.0	97.9866
1665.2	97.97052
1665.4	97.95443
1665.6	97.93835
1665.8	97.92226
1666.0	97.90618
1666.2	97.89009
1666.4	97.87401
1666.6	97.85792
1666.8	97.84184
1667.0	97.82575
1667.2	97.80966
1667.4	97.79358
1667.6	97.78534
1667.8	97.78052
1668.0	97.7757
1668.2	97.77088
1668.4	97.76606
1668.6	97.76124
1668.8	97.75641
1669.0	97.75159
1669.2	97.74677
1669.4	97.74195
1669.6	97.73713
1669.8	97.73231
1670.0	97.72749
1670.2	97.72267
1670.4	97.71785
1670.6	97.71303
1670.8	97.70821
1671.0	97.70339
1671.2	97.69857
1671.4	97.69375
1671.6	97.68893
1671.8	97.68411
1672.0	97.67929
1672.2	97.67447
1672.4	97.66965
1672.6	97.68089
1672.8	97.70043
1673.0	97.71998
1673.2	97.73952
1673.4	97.75906
1673.6	97.7786
1673.8	97.79814
1674.0	97.81769
1674.2	97.83723
1674.4	97.85677
1674.6	97.87631
1674.8	97.89586
1675.0	97.9154
1675.2	97.93494
1675.4	97.95448
1675.6	97.97402
1675.8	97.99357
1676.0	98.01311
1676.2	98.03265
1676.4	98.05219
1676.6	98.07174
1676.8	98.09128
1677.0	98.11082
1677.2	98.13036
1677.4	98.14991
1677.6	98.15289
1677.8	98.14584
1678.0	98.13878
1678.2	98.13172
1678.4	98.12467
1678.6	98.11761
1678.8	98.11055
1679.0	98.10349
1679.2	98.09644
1679.4	98.08938
1679.6	98.08232
1679.8	98.07527
1680.0	98.06821
1680.2	98.05706
1680.4	98.0459
1680.6	98.03475
1680.8	98.02359
1681.0	98.01244
1681.2	98.00334
1681.4	97.99424
1681.6	97.98514
1681.8	97.97604
1682.0	97.96694
1682.2	98.11247
1682.4	98.258
1682.6	98.22699
1682.8	98.07095
1683.0	97.91492
1683.2	97.91278
1683.4	97.91064
1683.6	97.9085
1683.8	97.90637
1684.0	97.90423
1684.2	97.89928
1684.4	97.89433
1684.6	97.88938
1684.8	97.88443
1685.0	97.87949
1685.2	97.88927
1685.4	97.89906
1685.6	97.90885
1685.8	97.91864
1686.0	97.92843
1686.2	97.92376
1686.4	97.91909
1686.6	97.91442
1686.8	97.90975
1687.0	97.90508
1687.2	98.02114
1687.4	98.1372
1687.6	98.12792
1687.8	98.01543
1688.0	97.90294
1688.2	97.91256
1688.4	97.92218
1688.6	97.93181
1688.8	97.94143
1689.0	97.95105
1689.2	97.95908
1689.4	97.96711
1689.6	97.97514
1689.8	97.98317
1690.0	97.9912
1690.2	97.99712
1690.4	98.00304
1690.6	98.00896
1690.8	98.01488
1691.0	98.0208
1691.2	98.02498
1691.4	98.02916
1691.6	98.03335
1691.8	98.03753
1692.0	98.04171
1692.2	98.0764
1692.4	98.11108
1692.6	98.11632
1692.8	98.09343
1693.0	98.07053
1693.2	98.07563
1693.4	98.08072
1693.6	98.08582
1693.8	98.09091
1694.0	98.09601
1694.2	98.09618
1694.4	98.09635
1694.6	98.09652
1694.8	98.09669
1695.0	98.09686
1695.2	98.10551
1695.4	98.11416
1695.6	98.12281
1695.8	98.13146
1696.0	98.14012
1696.2	98.14147
1696.4	98.14283
1696.6	98.14419
1696.8	98.14555
1697.0	98.1469
1697.2	98.21883
1697.4	98.29076
1697.6	98.29395
1697.8	98.22105
1698.0	98.14815
1698.2	98.14413
1698.4	98.14012
1698.6	98.13611
1698.8	98.13209
1699.0	98.12808
1699.2	98.12857
1699.4	98.12906
1699.6	98.12955
1699.8	98.13004
1700.0	98.13052
1700.2	98.12843
1700.4	98.12634
1700.6	98.12425
1700.8	98.12216
1701.0	98.12006
1701.2	98.11684
1701.4	98.11362
1701.6	98.1104
1701.8	98.10718
1702.0	98.10396
1702.2	98.19205
1702.4	98.28014
1702.6	98.28468
1702.8	98.18183
1703.0	98.07898
1703.2	98.08183
1703.4	98.08468
1703.6	98.08754
1703.8	98.09039
1704.0	98.09325
1704.2	98.09466
1704.4	98.09608
1704.6	98.09749
1704.8	98.09891
1705.0	98.10032
1705.2	98.09985
1705.4	98.09938
1705.6	98.09891
1705.8	98.09845
1706.0	98.09798
1706.2	98.10247
1706.4	98.10697
1706.6	98.11147
1706.8	98.11597
1707.0	98.12047
1707.2	98.12067
1707.4	98.12087
1707.6	98.12107
1707.8	98.12127
1708.0	98.12147
1708.2	98.1235
1708.4	98.12553
1708.6	98.12756
1708.8	98.12959
1709.0	98.13162
1709.2	98.14024
1709.4	98.14886
1709.6	98.15748
1709.8	98.1661
1710.0	98.17472
1710.2	98.17149
1710.4	98.16825
1710.6	98.16502
1710.8	98.16178
1711.0	98.15855
1711.2	98.15774
1711.4	98.15693
1711.6	98.15613
1711.8	98.15532
1712.0	98.15451
1712.2	98.16729
1712.4	98.18008
1712.6	98.19286
1712.8	98.20564
1713.0	98.21842
1713.2	98.21384
1713.4	98.20926
1713.6	98.20468
1713.8	98.20009
1714.0	98.19551
1714.2	98.19463
1714.4	98.19375
1714.6	98.19287
1714.8	98.19198
1715.0	98.1911
1715.2	98.18743
1715.4	98.18376
1715.6	98.18009
1715.8	98.17642
1716.0	98.17275
1716.2	98.16614
1716.4	98.15952
1716.6	98.15291
1716.8	98.14629
1717.0	98.13968
1717.2	98.13601
1717.4	98.13234
1717.6	98.12867
1717.8	98.125
1718.0	98.12133
1718.2	98.11187
1718.4	98.1024
1718.6	98.09293
1718.8	98.08347
1719.0	98.074
1719.2	98.07144
1719.4	98.06888
1719.6	98.06632
1719.8	98.06376
1720.0	98.0612
1720.2	98.05189
1720.4	98.04258
1720.6	98.03328
1720.8	98.02397
1721.0	98.01466
1721.2	98.01031
1721.4	98.00596
1721.6	98.0016
1721.8	97.99725
1722.0	97.9929
1722.2	97.99229
1722.4	97.99169
1722.6	97.99108
1722.8	97.99048
1723.0	97.98987
1723.2	97.98874
1723.4	97.9876
1723.6	97.98647
1723.8	97.98533
1724.0	97.9842
1724.2	97.98349
1724.4	97.98278
1724.6	97.98208
1724.8	97.98137
1725.0	97.98067
1725.2	97.98457
1725.4	97.98847
1725.6	97.99237
1725.8	97.99627
1726.0	98.00017
1726.2	98.0072
1726.4	98.01424
1726.6	98.02127
1726.8	98.02831
1727.0	98.03534
1727.2	98.04155
1727.4	98.04777
1727.6	98.05398
1727.8	98.06019
1728.0	98.0664
1728.2	98.07453
1728.4	98.08266
1728.6	98.09079
1728.8	98.09892
1729.0	98.10706
1729.2	98.11768
1729.4	98.12831
1729.6	98.13894
1729.8	98.14957
1730.0	98.1602
1730.2	98.1678
1730.4	98.17541
1730.6	98.18301
1730.8	98.19061
1731.0	98.19822
1731.2	98.20772
1731.4	98.21722
1731.6	98.22672
1731.8	98.23622
1732.0	98.24572
1732.2	98.25929
1732.4	98.27286
1732.6	98.28643
1732.8	98.29999
1733.0	98.31356
1733.2	98.31567
1733.4	98.31778
1733.6	98.31989
1733.8	98.322
1734.0	98.32411
1734.2	98.33053
1734.4	98.33695
1734.6	98.34337
1734.8	98.34979
1735.0	98.35622
1735.2	98.3659
1735.4	98.37559
1735.6	98.38528
1735.8	98.39496
1736.0	98.40465
1736.2	98.40072
1736.4	98.39679
1736.6	98.39287
1736.8	98.38894
1737.0	98.38501
1737.2	98.38641
1737.4	98.3878
1737.6	98.3892
1737.8	98.3906
1738.0	98.392
1738.2	98.38839
1738.4	98.38479
1738.6	98.38119
1738.8	98.37758
1739.0	98.37398
1739.2	98.36921
1739.4	98.36444
1739.6	98.35967
1739.8	98.3549
1740.0	98.35013
1740.2	98.34102
1740.4	98.3319
1740.6	98.32278
1740.8	98.31366
1741.0	98.30455
1741.2	98.29852
1741.4	98.2925
1741.6	98.28648
1741.8	98.28045
1742.0	98.27443
1742.2	98.26738
1742.4	98.26033
1742.6	98.25328
1742.8	98.24623
1743.0	98.23918
1743.2	98.23401
1743.4	98.22884
1743.6	98.22367
1743.8	98.2185
1744.0	98.21333
1744.2	98.21015
1744.4	98.20696
1744.6	98.20377
1744.8	98.20058
1745.0	98.1974
1745.2	98.19604
1745.4	98.19468
1745.6	98.19333
1745.8	98.19197
1746.0	98.19061
1746.2	98.19075
1746.4	98.19089
1746.6	98.19103
1746.8	98.19118
1747.0	98.19132
1747.2	98.19083
1747.4	98.19035
1747.6	98.18986
1747.8	98.18938
1748.0	98.18889
1748.2	98.19102
1748.4	98.19315
1748.6	98.19528
1748.8	98.19741
1749.0	98.19954
1749.2	98.20683
1749.4	98.21411
1749.6	98.2214
1749.8	98.22868
1750.0	98.23597
1750.2	98.23994
1750.4	98.24391
1750.6	98.24788
1750.8	98.25184
1751.0	98.25581
1751.2	98.26334
1751.4	98.27087
1751.6	98.2784
1751.8	98.28593
1752.0	98.29346
1752.2	98.29821
1752.4	98.30297
1752.6	98.30772
1752.8	98.31248
1753.0	98.31723
1753.2	98.32048
1753.4	98.32373
1753.6	98.32698
1753.8	98.33023
1754.0	98.33349
1754.2	98.33486
1754.4	98.33623
1754.6	98.3376
1754.8	98.33897
1755.0	98.34034
1755.2	98.34139
1755.4	98.34243
1755.6	98.34348
1755.8	98.34452
1756.0	98.34557
1756.2	98.34891
1756.4	98.35225
1756.6	98.3556
1756.8	98.35894
1757.0	98.36229
1757.2	98.36481
1757.4	98.36734
1757.6	98.36986
1757.8	98.37239
1758.0	98.37491
1758.2	98.37731
1758.4	98.37971
1758.6	98.38211
1758.8	98.38451
1759.0	98.38691
1759.2	98.38243
1759.4	98.37795
1759.6	98.37347
1759.8	98.369
1760.0	98.36452
1760.2	98.35658
1760.4	98.34864
1760.6	98.34069
1760.8	98.33275
1761.0	98.32481
1761.2	98.31524
1761.4	98.30568
1761.6	98.29612
1761.8	98.28655
1762.0	98.27699
1762.2	98.27689
1762.4	98.2768
1762.6	98.27671
1762.8	98.27661
1763.0	98.27652
1763.2	98.27016
1763.4	98.26381
1763.6	98.25745
1763.8	98.2511
1764.0	98.24474
1764.2	98.23942
1764.4	98.23409
1764.6	98.22876
1764.8	98.22343
1765.0	98.21811
1765.2	98.21353
1765.4	98.20895
1765.6	98.20437
1765.8	98.19979
1766.0	98.19522
1766.2	98.19345
1766.4	98.19169
1766.6	98.18993
1766.8	98.18817
1767.0	98.1864
1767.2	98.18925
1767.4	98.19209
1767.6	98.19493
1767.8	98.19778
1768.0	98.20062
1768.2	98.20027
1768.4	98.19992
1768.6	98.19958
1768.8	98.19923
1769.0	98.19888
1769.2	98.20028
1769.4	98.20168
1769.6	98.20308
1769.8	98.20448
1770.0	98.20588
1770.2	98.2084
1770.4	98.21091
1770.6	98.21343
1770.8	98.21594
1771.0	98.21846
1771.2	98.22462
1771.4	98.23078
1771.6	98.23694
1771.8	98.2431
1772.0	98.24926
1772.2	98.25417
1772.4	98.25907
1772.6	98.26397
1772.8	98.26887
1773.0	98.27378
1773.2	98.27905
1773.4	98.28433
1773.6	98.2896
1773.8	98.29488
1774.0	98.30015
1774.2	98.30906
1774.4	98.31796
1774.6	98.32687
1774.8	98.33578
1775.0	98.34468
1775.2	98.35264
1775.4	98.3606
1775.6	98.36856
1775.8	98.37652
1776.0	98.38448
1776.2	98.38731
1776.4	98.39014
1776.6	98.39297
1776.8	98.39579
1777.0	98.39862
1777.2	98.40402
1777.4	98.40941
1777.6	98.41481
1777.8	98.4202
1778.0	98.4256
1778.2	98.42938
1778.4	98.43317
1778.6	98.43696
1778.8	98.44074
1779.0	98.44453
1779.2	98.44385
1779.4	98.44318
1779.6	98.4425
1779.8	98.44182
1780.0	98.44115
1780.2	98.44058
1780.4	98.44001
1780.6	98.43944
1780.8	98.43888
1781.0	98.43831
1781.2	98.43453
1781.4	98.43074
1781.6	98.42696
1781.8	98.42317
1782.0	98.41939
1782.2	98.41943
1782.4	98.41947
1782.6	98.41951
1782.8	98.41954
1783.0	98.41958
1783.2	98.41183
1783.4	98.40407
1783.6	98.39631
1783.8	98.38855
1784.0	98.3808
1784.2	98.37357
1784.4	98.36635
1784.6	98.35913
1784.8	98.35191
1785.0	98.34469
1785.2	98.3392
1785.4	98.3337
1785.6	98.3282
1785.8	98.3227
1786.0	98.31721
1786.2	98.31167
1786.4	98.30613
1786.6	98.3006
1786.8	98.29506
1787.0	98.28953
1787.2	98.28354
1787.4	98.27755
1787.6	98.27157
1787.8	98.26558
1788.0	98.25959
1788.2	98.2587
1788.4	98.25781
1788.6	98.25692
1788.8	98.25603
1789.0	98.25514
1789.2	98.25497
1789.4	98.2548
1789.6	98.25463
1789.8	98.25446
1790.0	98.25429
1790.2	98.25204
1790.4	98.2498
1790.6	98.24756
1790.8	98.24531
1791.0	98.24307
1791.2	98.24155
1791.4	98.24004
1791.6	98.23852
1791.8	98.237
1792.0	98.23549
1792.2	98.23768
1792.4	98.23987
1792.6	98.24206
1792.8	98.24425
1793.0	98.24645
1793.2	98.25074
1793.4	98.25504
1793.6	98.25934
1793.8	98.26364
1794.0	98.26794
1794.2	98.27442
1794.4	98.2809
1794.6	98.28738
1794.8	98.29385
1795.0	98.30033
1795.2	98.30574
1795.4	98.31115
1795.6	98.31655
1795.8	98.32196
1796.0	98.32737
1796.2	98.3332
1796.4	98.33904
1796.6	98.34487
1796.8	98.35071
1797.0	98.35655
1797.2	98.3667
1797.4	98.37685
1797.6	98.387
1797.8	98.39715
1798.0	98.4073
1798.2	98.41587
1798.4	98.42444
1798.6	98.433
1798.8	98.44157
1799.0	98.45014
1799.2	98.45441
1799.4	98.45867
1799.6	98.46294
1799.8	98.46721
1800.0	98.47148
1800.2	98.47589
1800.4	98.4803
1800.6	98.48472
1800.8	98.48913
1801.0	98.49355
1801.2	98.49482
1801.4	98.49609
1801.6	98.49737
1801.8	98.49864
1802.0	98.49991
1802.2	98.50093
1802.4	98.50194
1802.6	98.50296
1802.8	98.50398
1803.0	98.50499
1803.2	98.50788
1803.4	98.51076
1803.6	98.51365
1803.8	98.51654
1804.0	98.51942
1804.2	98.51597
1804.4	98.51251
1804.6	98.50905
1804.8	98.5056
1805.0	98.50214
1805.2	98.4919
1805.4	98.48167
1805.6	98.47143
1805.8	98.4612
1806.0	98.45096
1806.2	98.44643
1806.4	98.44191
1806.6	98.43738
1806.8	98.43285
1807.0	98.42833
1807.2	98.43221
1807.4	98.4361
1807.6	98.43999
1807.8	98.44388
1808.0	98.44777
1808.2	98.44455
1808.4	98.44134
1808.6	98.43813
1808.8	98.43491
1809.0	98.4317
1809.2	98.42506
1809.4	98.41843
1809.6	98.4118
1809.8	98.40516
1810.0	98.39853
1810.2	98.39498
1810.4	98.39143
1810.6	98.38788
1810.8	98.38434
1811.0	98.38079
1811.2	98.37664
1811.4	98.37249
1811.6	98.36834
1811.8	98.36419
1812.0	98.36005
1812.2	98.35647
1812.4	98.35289
1812.6	98.34932
1812.8	98.34574
1813.0	98.34217
1813.2	98.34198
1813.4	98.3418
1813.6	98.34161
1813.8	98.34143
1814.0	98.34124
1814.2	98.3453
1814.4	98.34936
1814.6	98.35342
1814.8	98.35748
1815.0	98.36154
1815.2	98.3654
1815.4	98.36926
1815.6	98.37312
1815.8	98.37699
1816.0	98.38085
1816.2	98.38572
1816.4	98.3906
1816.6	98.39547
1816.8	98.40035
1817.0	98.40522
1817.2	98.41142
1817.4	98.41762
1817.6	98.42382
1817.8	98.43002
1818.0	98.43623
1818.2	98.43921
1818.4	98.4422
1818.6	98.44519
1818.8	98.44818
1819.0	98.45117
1819.2	98.45523
1819.4	98.45929
1819.6	98.46335
1819.8	98.46741
1820.0	98.47147
1820.2	98.47815
1820.4	98.48484
1820.6	98.49152
1820.8	98.49821
1821.0	98.50489
1821.2	98.51007
1821.4	98.51525
1821.6	98.52044
1821.8	98.52562
1822.0	98.5308
1822.2	98.53669
1822.4	98.54258
1822.6	98.54847
1822.8	98.55436
1823.0	98.56024
1823.2	98.56947
1823.4	98.5787
1823.6	98.58794
1823.8	98.59717
1824.0	98.6064
1824.2	98.60968
1824.4	98.61297
1824.6	98.61626
1824.8	98.61954
1825.0	98.62283
1825.2	98.62249
1825.4	98.62215
1825.6	98.62181
1825.8	98.62146
1826.0	98.62112
1826.2	98.62259
1826.4	98.62405
1826.6	98.62551
1826.8	98.62697
1827.0	98.62843
1827.2	98.62716
1827.4	98.62588
1827.6	98.6246
1827.8	98.62332
1828.0	98.62205
1828.2	98.61983
1828.4	98.61762
1828.6	98.61541
1828.8	98.6132
1829.0	98.61099
1829.2	98.60527
1829.4	98.59956
1829.6	98.59384
1829.8	98.58813
1830.0	98.58242
1830.2	98.57374
1830.4	98.56507
1830.6	98.5564
1830.8	98.54773
1831.0	98.53906
1831.2	98.53165
1831.4	98.52425
1831.6	98.51685
1831.8	98.50944
1832.0	98.50204
1832.2	98.49514
1832.4	98.48824
1832.6	98.48134
1832.8	98.47444
1833.0	98.46754
1833.2	98.46097
1833.4	98.45439
1833.6	98.44782
1833.8	98.44124
1834.0	98.43467
1834.2	98.42666
1834.4	98.41866
1834.6	98.41065
1834.8	98.40264
1835.0	98.39463
1835.2	98.38834
1835.4	98.38206
1835.6	98.37577
1835.8	98.36948
1836.0	98.3632
1836.2	98.35616
1836.4	98.34913
1836.6	98.34209
1836.8	98.33506
1837.0	98.32803
1837.2	98.32791
1837.4	98.32779
1837.6	98.32768
1837.8	98.32756
1838.0	98.32745
1838.2	98.34669
1838.4	98.36594
1838.6	98.38518
1838.8	98.40443
1839.0	98.42367
1839.2	98.41104
1839.4	98.39841
1839.6	98.38578
1839.8	98.37314
1840.0	98.36051
1840.2	98.34775
1840.4	98.33499
1840.6	98.32223
1840.8	98.30947
1841.0	98.29671
1841.2	98.30721
1841.4	98.3177
1841.6	98.32819
1841.8	98.33869
1842.0	98.34918
1842.2	98.35552
1842.4	98.36186
1842.6	98.3682
1842.8	98.37454
1843.0	98.38088
1843.2	98.38663
1843.4	98.39239
1843.6	98.39815
1843.8	98.40391
1844.0	98.40967
1844.2	98.4204
1844.4	98.43114
1844.6	98.44188
1844.8	98.45262
1845.0	98.46335
1845.2	98.47041
1845.4	98.47746
1845.6	98.48452
1845.8	98.49157
1846.0	98.49863
1846.2	98.50738
1846.4	98.51614
1846.6	98.52489
1846.8	98.53365
1847.0	98.5424
1847.2	98.55168
1847.4	98.56096
1847.6	98.57024
1847.8	98.57952
1848.0	98.5888
1848.2	98.59094
1848.4	98.59309
1848.6	98.59524
1848.8	98.59739
1849.0	98.59954
1849.2	98.60793
1849.4	98.61631
1849.6	98.6247
1849.8	98.63309
1850.0	98.64148
1850.2	98.64896
1850.4	98.65645
1850.6	98.66394
1850.8	98.67143
1851.0	98.67891
1851.2	98.68073
1851.4	98.68255
1851.6	98.68437
1851.8	98.6862
1852.0	98.68802
1852.2	98.69039
1852.4	98.69277
1852.6	98.69514
1852.8	98.69751
1853.0	98.69989
1853.2	98.70184
1853.4	98.70379
1853.6	98.70574
1853.8	98.70769
1854.0	98.70964
1854.2	98.7179
1854.4	98.72616
1854.6	98.73442
1854.8	98.74267
1855.0	98.75093
1855.2	98.74721
1855.4	98.74349
1855.6	98.73977
1855.8	98.73605
1856.0	98.73233
1856.2	98.7256
1856.4	98.71887
1856.6	98.71214
1856.8	98.70541
1857.0	98.69868
1857.2	98.69453
1857.4	98.69039
1857.6	98.68625
1857.8	98.6821
1858.0	98.67796
1858.2	98.67681
1858.4	98.67566
1858.6	98.67451
1858.8	98.67336
1859.0	98.67221
1859.2	98.67039
1859.4	98.66856
1859.6	98.66674
1859.8	98.66492
1860.0	98.66309
1860.2	98.66529
1860.4	98.66749
1860.6	98.66969
1860.8	98.67188
1861.0	98.67408
1861.2	98.67913
1861.4	98.68418
1861.6	98.68923
1861.8	98.69428
1862.0	98.69933
1862.2	98.69266
1862.4	98.68599
1862.6	98.67932
1862.8	98.67264
1863.0	98.66597
1863.2	98.67387
1863.4	98.68177
1863.6	98.68966
1863.8	98.69756
1864.0	98.70546
1864.2	98.7073
1864.4	98.70915
1864.6	98.71099
1864.8	98.71284
1865.0	98.71468
1865.2	98.7119
1865.4	98.70912
1865.6	98.70633
1865.8	98.70355
1866.0	98.70077
1866.2	98.7027
1866.4	98.70463
1866.6	98.70657
1866.8	98.7085
1867.0	98.71043
1867.2	98.71534
1867.4	98.72024
1867.6	98.72515
1867.8	98.73005
1868.0	98.73496
1868.2	98.73895
1868.4	98.74294
1868.6	98.74694
1868.8	98.75093
1869.0	98.75493
1869.2	98.75766
1869.4	98.7604
1869.6	98.76314
1869.8	98.76587
1870.0	98.76861
1870.2	98.77283
1870.4	98.77706
1870.6	98.78128
1870.8	98.78551
1871.0	98.78973
1871.2	98.79153
1871.4	98.79332
1871.6	98.79512
1871.8	98.79691
1872.0	98.79871
1872.2	98.80238
1872.4	98.80605
1872.6	98.80972
1872.8	98.81339
1873.0	98.81707
1873.2	98.82168
1873.4	98.8263
1873.6	98.83091
1873.8	98.83553
1874.0	98.84015
1874.2	98.83946
1874.4	98.83878
1874.6	98.83809
1874.8	98.8374
1875.0	98.83672
1875.2	98.83391
1875.4	98.8311
1875.6	98.8283
1875.8	98.82549
1876.0	98.82268
1876.2	98.82308
1876.4	98.82348
1876.6	98.82388
1876.8	98.82427
1877.0	98.82467
1877.2	98.82067
1877.4	98.81667
1877.6	98.81268
1877.8	98.80868
1878.0	98.80468
1878.2	98.80197
1878.4	98.79927
1878.6	98.79657
1878.8	98.79387
1879.0	98.79117
1879.2	98.786
1879.4	98.78083
1879.6	98.77566
1879.8	98.77049
1880.0	98.76532
1880.2	98.75693
1880.4	98.74853
1880.6	98.74013
1880.8	98.73173
1881.0	98.72333
1881.2	98.71383
1881.4	98.70433
1881.6	98.69483
1881.8	98.68533
1882.0	98.67583
1882.2	98.6679
1882.4	98.65997
1882.6	98.65205
1882.8	98.64412
1883.0	98.63619
1883.2	98.63564
1883.4	98.63508
1883.6	98.63452
1883.8	98.63397
1884.0	98.63341
1884.2	98.62785
1884.4	98.6223
1884.6	98.61674
1884.8	98.61118
1885.0	98.60563
1885.2	98.60199
1885.4	98.59836
1885.6	98.59473
1885.8	98.5911
1886.0	98.58747
1886.2	98.57831
1886.4	98.56915
1886.6	98.55999
1886.8	98.55083
1887.0	98.54167
1887.2	98.54072
1887.4	98.53977
1887.6	98.53883
1887.8	98.53788
1888.0	98.53693
1888.2	98.53728
1888.4	98.53763
1888.6	98.53797
1888.8	98.53832
1889.0	98.53867
1889.2	98.53385
1889.4	98.52903
1889.6	98.52421
1889.8	98.51938
1890.0	98.51456
1890.2	98.51732
1890.4	98.52007
1890.6	98.52282
1890.8	98.52558
1891.0	98.52833
1891.2	98.5348
1891.4	98.54126
1891.6	98.54773
1891.8	98.5542
1892.0	98.56067
1892.2	98.55971
1892.4	98.55875
1892.6	98.55779
1892.8	98.55683
1893.0	98.55587
1893.2	98.55791
1893.4	98.55994
1893.6	98.56198
1893.8	98.56402
1894.0	98.56605
1894.2	98.56778
1894.4	98.56951
1894.6	98.57124
1894.8	98.57297
1895.0	98.5747
1895.2	98.58323
1895.4	98.59175
1895.6	98.60028
1895.8	98.6088
1896.0	98.61733
1896.2	98.61908
1896.4	98.62084
1896.6	98.6226
1896.8	98.62436
1897.0	98.62611
1897.2	98.63131
1897.4	98.63651
1897.6	98.6417
1897.8	98.6469
1898.0	98.6521
1898.2	98.65816
1898.4	98.66421
1898.6	98.67027
1898.8	98.67633
1899.0	98.68239
1899.2	98.6855
1899.4	98.68861
1899.6	98.69172
1899.8	98.69483
1900.0	98.69794
1900.2	98.70797
1900.4	98.718
1900.6	98.72803
1900.8	98.73806
1901.0	98.74809
1901.2	98.73898
1901.4	98.72986
1901.6	98.72075
1901.8	98.71163
1902.0	98.70252
1902.2	98.70789
1902.4	98.71326
1902.6	98.71863
1902.8	98.72399
1903.0	98.72936
1903.2	98.74712
1903.4	98.76487
1903.6	98.78263
1903.8	98.80038
1904.0	98.81814
1904.2	98.80902
1904.4	98.7999
1904.6	98.79078
1904.8	98.78167
1905.0	98.77255
1905.2	98.76868
1905.4	98.7648
1905.6	98.76093
1905.8	98.75706
1906.0	98.75319
1906.2	98.75158
1906.4	98.74997
1906.6	98.74836
1906.8	98.74675
1907.0	98.74514
1907.2	98.74668
1907.4	98.74821
1907.6	98.74975
1907.8	98.75128
1908.0	98.75281
1908.2	98.75656
1908.4	98.7603
1908.6	98.76404
1908.8	98.76778
1909.0	98.77153
1909.2	98.77086
1909.4	98.77019
1909.6	98.76952
1909.8	98.76885
1910.0	98.76819
1910.2	98.76928
1910.4	98.77038
1910.6	98.77147
1910.8	98.77257
1911.0	98.77366
1911.2	98.77415
1911.4	98.77463
1911.6	98.77512
1911.8	98.7756
1912.0	98.77609
1912.2	98.77524
1912.4	98.7744
1912.6	98.77356
1912.8	98.77271
1913.0	98.77187
1913.2	98.77818
1913.4	98.7845
1913.6	98.79081
1913.8	98.79712
1914.0	98.80344
1914.2	98.81198
1914.4	98.82053
1914.6	98.82907
1914.8	98.83762
1915.0	98.84616
1915.2	98.84539
1915.4	98.84461
1915.6	98.84384
1915.8	98.84306
1916.0	98.84229
1916.2	98.83879
1916.4	98.83528
1916.6	98.83178
1916.8	98.82827
1917.0	98.82477
1917.2	98.83017
1917.4	98.83557
1917.6	98.84097
1917.8	98.84637
1918.0	98.85178
1918.2	98.85021
1918.4	98.84864
1918.6	98.84707
1918.8	98.8455
1919.0	98.84393
1919.2	98.84947
1919.4	98.85501
1919.6	98.86055
1919.8	98.86609
1920.0	98.87163
1920.2	98.87663
1920.4	98.88163
1920.6	98.88664
1920.8	98.89164
1921.0	98.89664
1921.2	98.90049
1921.4	98.90435
1921.6	98.9082
1921.8	98.91206
1922.0	98.91591
1922.2	98.92536
1922.4	98.93482
1922.6	98.94427
1922.8	98.95372
1923.0	98.96318
1923.2	98.95919
1923.4	98.95519
1923.6	98.9512
1923.8	98.94721
1924.0	98.94322
1924.2	98.94143
1924.4	98.93965
1924.6	98.93787
1924.8	98.93609
1925.0	98.9343
1925.2	98.93308
1925.4	98.93185
1925.6	98.93062
1925.8	98.92939
1926.0	98.92817
1926.2	98.92857
1926.4	98.92897
1926.6	98.92938
1926.8	98.92978
1927.0	98.93018
1927.2	98.93087
1927.4	98.93156
1927.6	98.93225
1927.8	98.93294
1928.0	98.93363
1928.2	98.93305
1928.4	98.93246
1928.6	98.93187
1928.8	98.93128
1929.0	98.9307
1929.2	98.92756
1929.4	98.92442
1929.6	98.92128
1929.8	98.91815
1930.0	98.91501
1930.2	98.91116
1930.4	98.90732
1930.6	98.90347
1930.8	98.89962
1931.0	98.89578
1931.2	98.89171
1931.4	98.88765
1931.6	98.88358
1931.8	98.87952
1932.0	98.87546
1932.2	98.87027
1932.4	98.86508
1932.6	98.85989
1932.8	98.85471
1933.0	98.84952
1933.2	98.84627
1933.4	98.84302
1933.6	98.83977
1933.8	98.83652
1934.0	98.83327
1934.2	98.83288
1934.4	98.8325
1934.6	98.83211
1934.8	98.83172
1935.0	98.83134
1935.2	98.83021
1935.4	98.82908
1935.6	98.82795
1935.8	98.82682
1936.0	98.82569
1936.2	98.82195
1936.4	98.81821
1936.6	98.81448
1936.8	98.81074
1937.0	98.807
1937.2	98.80046
1937.4	98.79393
1937.6	98.7874
1937.8	98.78087
1938.0	98.77434
1938.2	98.77462
1938.4	98.7749
1938.6	98.77518
1938.8	98.77546
1939.0	98.77573
1939.2	98.77795
1939.4	98.78017
1939.6	98.78239
1939.8	98.78461
1940.0	98.78683
1940.2	98.78541
1940.4	98.78399
1940.6	98.78256
1940.8	98.78114
1941.0	98.77972
1941.2	98.78154
1941.4	98.78336
1941.6	98.78519
1941.8	98.78701
1942.0	98.78883
1942.2	98.78687
1942.4	98.7849
1942.6	98.78293
1942.8	98.78097
1943.0	98.779
1943.2	98.78403
1943.4	98.78906
1943.6	98.79408
1943.8	98.79911
1944.0	98.80414
1944.2	98.80835
1944.4	98.81256
1944.6	98.81677
1944.8	98.82098
1945.0	98.8252
1945.2	98.82487
1945.4	98.82455
1945.6	98.82422
1945.8	98.8239
1946.0	98.82357
1946.2	98.83253
1946.4	98.84148
1946.6	98.85044
1946.8	98.8594
1947.0	98.86835
1947.2	98.87369
1947.4	98.87903
1947.6	98.88437
1947.8	98.88971
1948.0	98.89505
1948.2	98.90227
1948.4	98.90949
1948.6	98.91671
1948.8	98.92393
1949.0	98.93115
1949.2	98.92999
1949.4	98.92883
1949.6	98.92767
1949.8	98.92652
1950.0	98.92536
1950.2	98.92849
1950.4	98.93163
1950.6	98.93476
1950.8	98.93789
1951.0	98.94103
1951.2	98.94122
1951.4	98.94141
1951.6	98.94161
1951.8	98.9418
1952.0	98.942
1952.2	98.94836
1952.4	98.95472
1952.6	98.96109
1952.8	98.96745
1953.0	98.97382
1953.2	98.974
1953.4	98.97418
1953.6	98.97436
1953.8	98.97455
1954.0	98.97473
1954.2	98.97271
1954.4	98.97068
1954.6	98.96866
1954.8	98.96663
1955.0	98.96461
1955.2	98.96671
1955.4	98.96882
1955.6	98.97092
1955.8	98.97302
1956.0	98.97512
1956.2	98.97789
1956.4	98.98066
1956.6	98.98343
1956.8	98.9862
1957.0	98.98896
1957.2	98.9859
1957.4	98.98283
1957.6	98.97976
1957.8	98.97669
1958.0	98.97363
1958.2	98.97403
1958.4	98.97444
1958.6	98.97485
1958.8	98.97526
1959.0	98.97566
1959.2	98.97577
1959.4	98.97587
1959.6	98.97597
1959.8	98.97608
1960.0	98.97618
1960.2	98.97332
1960.4	98.97046
1960.6	98.96761
1960.8	98.96475
1961.0	98.96189
1961.2	98.96273
1961.4	98.96358
1961.6	98.96442
1961.8	98.96527
1962.0	98.96611
1962.2	98.96269
1962.4	98.95927
1962.6	98.95585
1962.8	98.95243
1963.0	98.94901
1963.2	98.95047
1963.4	98.95194
1963.6	98.9534
1963.8	98.95487
1964.0	98.95633
1964.2	98.95871
1964.4	98.96109
1964.6	98.96347
1964.8	98.96585
1965.0	98.96823
1965.2	98.96916
1965.4	98.97009
1965.6	98.97102
1965.8	98.97194
1966.0	98.97287
1966.2	98.97354
1966.4	98.97421
1966.6	98.97488
1966.8	98.97555
1967.0	98.97622
1967.2	98.97714
1967.4	98.97805
1967.6	98.97897
1967.8	98.97989
1968.0	98.9808
1968.2	98.9798
1968.4	98.97879
1968.6	98.97779
1968.8	98.97679
1969.0	98.97578
1969.2	98.97793
1969.4	98.98008
1969.6	98.98223
1969.8	98.98438
1970.0	98.98653
1970.2	98.98696
1970.4	98.98739
1970.6	98.98782
1970.8	98.98825
1971.0	98.98868
1971.2	98.99627
1971.4	99.00386
1971.6	99.01145
1971.8	99.01904
1972.0	99.02663
1972.2	99.02646
1972.4	99.02629
1972.6	99.02613
1972.8	99.02596
1973.0	99.0258
1973.2	99.02362
1973.4	99.02144
1973.6	99.01926
1973.8	99.01708
1974.0	99.0149
1974.2	99.01828
1974.4	99.02166
1974.6	99.02504
1974.8	99.02842
1975.0	99.0318
1975.2	99.03979
1975.4	99.04778
1975.6	99.05578
1975.8	99.06377
1976.0	99.07176
1976.2	99.0756
1976.4	99.07943
1976.6	99.08326
1976.8	99.0871
1977.0	99.09093
1977.2	99.09007
1977.4	99.08921
1977.6	99.08836
1977.8	99.0875
1978.0	99.08664
1978.2	99.07904
1978.4	99.07145
1978.6	99.06385
1978.8	99.05626
1979.0	99.04866
1979.2	99.04868
1979.4	99.04869
1979.6	99.0487
1979.8	99.04872
1980.0	99.04873
1980.2	99.04947
1980.4	99.0502
1980.6	99.05093
1980.8	99.05167
1981.0	99.0524
1981.2	99.05089
1981.4	99.04938
1981.6	99.04786
1981.8	99.04635
1982.0	99.04484
1982.2	99.0456
1982.4	99.04637
1982.6	99.04714
1982.8	99.0479
1983.0	99.04867
1983.2	99.04592
1983.4	99.04318
1983.6	99.04043
1983.8	99.03768
1984.0	99.03494
1984.2	99.03278
1984.4	99.03062
1984.6	99.02846
1984.8	99.0263
1985.0	99.02415
1985.2	99.01615
1985.4	99.00816
1985.6	99.00016
1985.8	98.99217
1986.0	98.98417
1986.2	98.97722
1986.4	98.97026
1986.6	98.9633
1986.8	98.95635
1987.0	98.94939
1987.2	98.94974
1987.4	98.9501
1987.6	98.95046
1987.8	98.95082
1988.0	98.95117
1988.2	98.95092
1988.4	98.95068
1988.6	98.95043
1988.8	98.95018
1989.0	98.94993
1989.2	98.94941
1989.4	98.94888
1989.6	98.94836
1989.8	98.94783
1990.0	98.94731
1990.2	98.94322
1990.4	98.93912
1990.6	98.93503
1990.8	98.93094
1991.0	98.92685
1991.2	98.92911
1991.4	98.93137
1991.6	98.93364
1991.8	98.9359
1992.0	98.93817
1992.2	98.92954
1992.4	98.92091
1992.6	98.91229
1992.8	98.90366
1993.0	98.89503
1993.2	98.89803
1993.4	98.90103
1993.6	98.90402
1993.8	98.90702
1994.0	98.91002
1994.2	98.91099
1994.4	98.91197
1994.6	98.91295
1994.8	98.91393
1995.0	98.91491
1995.2	98.91288
1995.4	98.91085
1995.6	98.90883
1995.8	98.9068
1996.0	98.90478
1996.2	98.9029
1996.4	98.90103
1996.6	98.89916
1996.8	98.89729
1997.0	98.89541
1997.2	98.90089
1997.4	98.90637
1997.6	98.91185
1997.8	98.91733
1998.0	98.92281
1998.2	98.92588
1998.4	98.92895
1998.6	98.93203
1998.8	98.9351
1999.0	98.93817
1999.2	98.94016
1999.4	98.94216
1999.6	98.94415
1999.8	98.94614
2000.0	98.94813
2000.2	98.95105
2000.4	98.95397
2000.6	98.95689
2000.8	98.95981
2001.0	98.96273
2001.2	98.96157
2001.4	98.9604
2001.6	98.95924
2001.8	98.95807
2002.0	98.95691
2002.2	98.95741
2002.4	98.95791
2002.6	98.95841
2002.8	98.95891
2003.0	98.95941
2003.2	98.96394
2003.4	98.96846
2003.6	98.97298
2003.8	98.9775
2004.0	98.98202
2004.2	98.98652
2004.4	98.99102
2004.6	98.99552
2004.8	99.00002
2005.0	99.00452
2005.2	99.00423
2005.4	99.00393
2005.6	99.00364
2005.8	99.00335
2006.0	99.00305
2006.2	99.00619
2006.4	99.00933
2006.6	99.01247
2006.8	99.01561
2007.0	99.01875
2007.2	99.01658
2007.4	99.01442
2007.6	99.01226
2007.8	99.0101
2008.0	99.00793
2008.2	98.99959
2008.4	98.99124
2008.6	98.98289
2008.8	98.97454
2009.0	98.9662
2009.2	98.97046
2009.4	98.97472
2009.6	98.97898
2009.8	98.98324
2010.0	98.98751